786.04325	-1095.10000
787.07752	-1088.50000
788.11166	-1087.30000
789.14567	-1085.80000
790.17954	-1085.00000
791.21328	-1083.40000
792.24688	-1083.50000
793.28035	-1082.70000
794.31369	-1084.10000
795.34690	-1082.60000
796.37997	-1082.20000
797.41291	-1081.90000
798.44571	-1080.60000
799.47839	-1079.40000
800.51093	-1082.00000
801.54333	-1078.80000
802.57560	-1080.80000
803.60774	-1078.20000
804.63975	-1078.00000
805.67163	-1076.80000
806.70337	-1076.10000
807.73497	-1073.70000
808.76645	-1077.70000
809.79779	-1069.90000
810.82900	-1070.70000
811.86007	-1070.60000
812.89102	-1069.30000
813.92183	-1069.70000
814.95250	-1067.20000
815.98305	-1066.50000
817.01346	-1065.60000
818.04374	-1066.10000
819.07388	-1060.40000
820.10389	-1062.00000
821.13377	-1060.80000
822.16352	-1055.90000
823.19314	-1055.30000
824.22262	-1048.40000
825.25197	-1031.00000
826.28118	-1002.20000
827.31027	-935.90000
828.33922	-789.30000
829.36804	-454.80000
830.39672	34.30000
831.42527	589.10000
832.45370	1189.30000
833.48198	1826.20000
834.51014	2472.90000
835.53816	3123.80000
836.56605	3815.40000
837.59381	4519.40000
838.62144	5292.60000
839.64893	5899.80000
840.67629	6512.70000
841.70352	7024.70000
842.73062	7577.40000
843.75758	8041.80000
844.78441	8290.60000
845.81111	8426.60000
846.83768	8466.00000
847.86411	8514.80000
848.89042	8483.70000
849.91659	8538.30000
850.94263	8614.70000
851.96853	8643.80000
852.99431	8719.30000
854.01995	8761.60000
855.04546	8852.60000
856.07083	8910.50000
857.09608	8878.00000
858.12119	8950.90000
859.14618	8952.80000
860.17102	8978.50000
861.19574	9023.30000
862.22033	9089.80000
863.24478	9045.60000
864.26910	9018.60000
865.29329	9079.40000
866.31735	9038.90000
867.34128	8991.50000
868.36507	8886.30000
869.38873	8702.60000
870.41226	8585.20000
871.43566	8520.20000
872.45893	8390.20000
873.48206	8300.40000
874.50507	8329.40000
875.52794	8333.90000
876.55068	8345.20000
877.57329	8306.10000
878.59577	8312.80000
879.61811	8355.00000
880.64032	8395.30000
881.66241	8478.80000
882.68436	8477.40000
883.70618	8585.40000
884.72786	8604.70000
885.74942	8583.40000
886.77084	8518.50000
887.79214	8442.10000
888.81330	8454.20000
889.83433	8395.30000
890.85523	8339.10000
891.87599	8278.60000
892.89663	8343.00000
893.91713	8399.20000
894.93751	8481.40000
895.95775	8498.40000
896.97786	8592.80000
897.99784	8619.30000
899.01769	8669.60000
900.03740	8784.90000
901.05699	8841.10000
902.07644	8981.20000
903.09577	9059.30000
904.11496	9153.90000
905.13402	9284.90000
906.15295	9302.20000
907.17175	9260.80000
908.19042	9191.10000
909.20895	9092.30000
910.22736	8967.10000
911.24563	8865.20000
912.26378	8854.10000
913.28179	8758.40000
914.29967	8664.50000
915.31742	8684.50000
916.33504	8660.80000
917.35253	8637.60000
918.36989	8620.20000
919.38712	8593.10000
920.40422	8531.60000
921.42118	8528.20000
922.43802	8535.10000
923.45472	8510.40000
924.47129	8414.60000
925.48774	8425.90000
926.50405	8541.60000
927.52023	8505.70000
928.53628	8507.90000
929.55220	8541.30000
930.56799	8534.40000
931.58365	8572.40000
932.59918	8532.50000
933.61457	8584.80000
934.62984	8563.80000
935.64498	8598.70000
936.65998	8655.10000
937.67486	8677.00000
938.68960	8700.40000
939.70422	8723.70000
940.71870	8789.20000
941.73306	8788.90000
942.74728	8855.10000
943.76137	8883.20000
944.77534	8861.30000
945.78917	8858.90000
946.80287	8852.20000
947.81644	8829.90000
948.82988	8802.30000
949.84320	8825.80000
950.85638	8793.60000
951.86943	8846.30000
952.88235	8873.70000
953.89514	8840.00000
954.90780	8802.30000
955.92033	8768.80000
956.93273	8782.90000
957.94500	8855.20000
958.95714	8882.40000
959.96915	8914.30000
960.98103	8906.40000
961.99278	8888.70000
963.00440	8941.80000
964.01589	9020.00000
965.02725	9065.80000
966.03848	9117.20000
967.04958	9171.50000
968.06055	9226.40000
969.07139	9265.40000
970.08210	9197.40000
971.09268	9196.80000
972.10313	9183.60000
973.11345	9179.70000
974.12364	9187.10000
975.13370	9193.20000
976.14363	9209.40000
977.15344	9201.40000
978.16311	9147.20000
979.17265	9138.30000
980.18206	9089.30000
981.19135	9025.30000
982.20050	9016.70000
983.20952	9034.30000
984.21842	9052.30000
985.22718	9075.60000
986.23582	9027.50000
987.24432	9015.20000
988.25270	8984.90000
989.26095	8993.80000
990.26907	8933.50000
991.27705	8973.30000
992.28491	9037.20000
993.29264	9064.30000
994.30024	9034.50000
995.30771	9063.20000
996.31505	9098.60000
997.32226	9052.70000
998.32935	9108.50000
999.33630	9176.70000
1000.34312	9163.90000
1001.34982	9159.90000
1002.35638	9120.20000
1003.36282	9185.10000
1004.36913	9194.70000
1005.37530	9235.50000
1006.38135	9256.60000
1007.38727	9235.50000
1008.39306	9248.30000
1009.39872	9278.50000
1010.40425	9325.20000
1011.40966	9310.70000
1012.41493	9253.90000
1013.42008	9273.30000
1014.42509	9324.70000
1015.42998	9357.20000
1016.43474	9338.00000
1017.43937	9386.10000
1018.44387	9421.40000
1019.44824	9524.40000
1020.45248	9596.10000
1021.45660	9673.80000
1022.46058	9701.80000
1023.46444	9764.20000
1024.46816	9812.30000
1025.47176	9824.20000
1026.47523	9839.80000
1027.47857	9869.80000
1028.48178	9628.70000
1029.48487	9820.20000
1030.48782	10075.50000
1031.49065	10051.50000
1032.49335	10100.50000
1033.49591	10142.70000
1034.49835	10206.50000
1035.50067	10169.10000
1036.50285	10254.70000
1037.50490	10368.10000
1038.50683	10384.20000
1039.50863	10489.50000
1040.51030	10550.90000
1041.51184	10575.10000
1042.51325	10660.50000
1043.51453	10790.90000
1044.51569	10827.00000
1045.51671	10715.90000
1046.51761	10647.10000
1047.51838	10617.90000
1048.51902	10523.70000
1049.51954	10592.10000
1050.51992	10471.70000
1051.52018	10540.80000
1052.52031	10506.00000
1053.52031	10572.80000
1054.52018	10540.00000
1055.51993	10563.90000
1056.51954	10568.80000
1057.51903	10599.10000
1058.51839	10560.90000
1059.51762	10563.10000
1060.51672	10578.80000
1061.51570	10629.00000
1062.51454	10603.50000
1063.51326	10546.80000
1064.51186	10512.00000
1065.51032	10668.00000
1066.50865	10730.90000
1067.50686	10789.20000
1068.50494	10729.90000
1069.50289	10803.90000
1070.50071	10850.10000
1071.49841	10888.30000
1072.49598	10928.40000
1073.49342	10993.40000
1074.49073	11044.50000
1075.48791	11140.60000
1076.48497	11192.50000
1077.48190	11250.40000
1078.47870	11310.30000
1079.47537	11321.20000
1080.47192	11362.80000
1081.46833	11479.60000
1082.46462	11485.30000
1083.46079	11492.60000
1084.45682	11449.30000
1085.45273	11453.80000
1086.44851	11472.90000
1087.44416	11607.30000
1088.43968	11668.30000
1089.43508	11679.60000
1090.43035	11743.90000
1091.42549	11822.70000
1092.42050	11917.20000
1093.41539	12038.10000
1094.41015	12129.00000
1095.40478	12231.60000
1096.39929	12400.60000
1097.39366	12426.50000
1098.38791	12393.70000
1099.38203	12332.10000
1100.37603	12341.70000
1101.36990	12362.60000
1102.36364	12312.60000
1103.35725	12344.40000
1104.35074	12311.60000
1105.34409	12287.70000
1106.33733	12415.00000
1107.33043	12465.90000
1108.32341	12424.00000
1109.31626	12487.10000
1110.30898	12512.50000
1111.30157	12662.30000
1112.29404	12663.20000
1113.28638	12653.10000
1114.27860	12785.10000
1115.27069	12980.90000
1116.26265	12956.50000
1117.25448	13040.40000
1118.24618	13083.40000
1119.23776	13151.10000
1120.22922	13272.30000
1121.22054	13392.30000
1122.21174	13620.10000
1123.20281	13782.20000
1124.19376	13968.60000
1125.18457	14171.40000
1126.17526	14373.10000
1127.16583	14541.40000
1128.15627	14876.30000
1129.14658	15199.00000
1130.13676	15480.30000
1131.12682	15678.00000
1132.11675	16065.90000
1133.10655	16274.60000
1134.09623	16665.50000
1135.08578	17177.70000
1136.07520	17632.60000
1137.06450	18035.90000
1138.05367	18302.30000
1139.04271	18224.30000
1140.03163	18412.10000
1141.02042	18245.30000
1142.00909	18219.90000
1142.99762	18175.10000
1143.98603	18156.60000
1144.97432	18287.60000
1145.96248	18483.60000
1146.95051	18905.00000
1147.93841	19391.90000
1148.92619	19960.80000
1149.91385	20606.00000
1150.90137	21342.70000
1151.88877	22059.10000
1152.87604	22515.90000
1153.86319	23188.90000
1154.85021	23625.50000
1155.83711	23691.10000
1156.82388	23649.30000
1157.81052	23480.80000
1158.79703	22910.80000
1159.78342	22294.00000
1160.76969	21560.20000
1161.75582	20925.10000
1162.74184	20239.40000
1163.72772	19654.90000
1164.71348	19189.70000
1165.69911	18733.20000
1166.68462	18413.10000
1167.67000	18204.40000
1168.65526	17963.20000
1169.64039	17792.60000
1170.62539	17701.30000
1171.61027	17673.40000
1172.59502	17670.10000
1173.57964	17586.50000
1174.56414	17577.10000
1175.54851	17607.20000
1176.53276	17439.10000
1177.51688	17360.80000
1178.50088	17439.40000
1179.48475	17568.00000
1180.46849	17652.80000
1181.45211	17897.90000
1182.43560	18362.20000
1183.41897	18739.70000
1184.40221	19302.20000
1185.38533	19930.10000
1186.36832	20454.00000
1187.35118	21149.00000
1188.33392	21578.90000
1189.31653	21871.40000
1190.29902	21684.70000
1191.28138	21236.10000
1192.26362	20417.20000
1193.24573	19557.00000
1194.22771	19073.30000
1195.20957	18411.20000
1196.19131	17807.00000
1197.17291	17322.30000
1198.15440	16949.10000
1199.13575	16479.30000
1200.11699	16096.20000
1201.09809	15918.70000
1202.07907	15860.55000
1203.05993	15686.00000
1204.04066	15628.20000
1205.02127	15523.90000
1206.00175	15341.10000
1206.98210	15112.50000
1207.96233	15112.60000
1208.94243	14957.70000
1209.92241	14819.30000
1210.90227	14709.50000
1211.88200	14616.20000
1212.86160	14612.50000
1213.84108	14618.20000
1214.82043	14549.70000
1215.79966	14564.60000
1216.77876	14640.00000
1217.75774	14740.55000
1218.73659	14699.30000
1219.71532	14849.90000
1220.69392	14925.10000
1221.67240	15054.80000
1222.65075	15157.00000
1223.62898	15253.20000
1224.60708	15305.00000
1225.58506	15380.50000
1226.56291	15301.20000
1227.54064	15316.20000
1228.51825	15343.00000
1229.49572	15319.80000
1230.47308	15154.70000
1231.45031	15196.40000
1232.42741	15157.10000
1233.40439	15168.80000
1234.38124	15135.70000
1235.35797	15124.10000
1236.33458	15151.60000
1237.31106	15233.50000
1238.28741	15262.60000
1239.26364	15231.30000
1240.23975	15259.70000
1241.21573	15382.60000
1242.19159	15446.70000
1243.16732	15512.90000
1244.14293	15647.20000
1245.11841	15916.00000
1246.09377	16057.70000
1247.06900	16197.70000
1248.04411	16333.10000
1249.01910	16417.90000
1249.99396	16297.70000
1250.96869	16168.40000
1251.94331	15867.80000
1252.91779	15704.50000
1253.89216	15621.90000
1254.86639	15428.10000
1255.84051	15193.20000
1256.81450	15066.80000
1257.78836	15095.00000
1258.76210	15032.90000
1259.73572	15055.30000
1260.70921	15043.60000
1261.68258	15050.10000
1262.65583	15150.00000
1263.62895	15150.50000
1264.60194	15245.20000
1265.57481	15435.70000
1266.54756	15628.40000
1267.52018	15775.40000
1268.49268	15962.50000
1269.46506	16376.30000
1270.43731	16732.70000
1271.40944	17025.00000
1272.38144	17357.30000
1273.35332	17842.00000
1274.32507	18379.00000
1275.29670	18751.60000
1276.26821	19015.60000
1277.23959	19099.40000
1278.21085	19056.60000
1279.18199	18842.30000
1280.15300	18581.20000
1281.12389	18152.60000
1282.09465	17858.20000
1283.06529	17552.70000
1284.03581	17164.40000
1285.00620	16993.80000
1285.97647	16831.50000
1286.94661	16828.90000
1287.91663	16876.30000
1288.88653	16922.90000
1289.85630	17124.10000
1290.82595	17348.30000
1291.79548	17501.40000
1292.76488	17498.50000
1293.73416	17484.90000
1294.70331	17304.60000
1295.67235	17106.90000
1296.64125	16880.70000
1297.61004	16721.00000
1298.57870	16568.90000
1299.54724	16472.20000
1300.51565	16402.80000
1301.48394	16351.50000
1302.45211	16288.70000
1303.42015	16263.90000
1304.38807	16162.50000
1305.35587	16151.90000
1306.32354	16240.80000
1307.29109	16274.10000
1308.25851	16224.90000
1309.22582	16228.10000
1310.19300	16419.10000
1311.16005	16532.20000
1312.12699	16608.90000
1313.09380	16678.50000
1314.06048	16608.70000
1315.02705	16560.70000
1315.99349	16467.60000
1316.95980	16234.40000
1317.92600	16094.90000
1318.89207	15985.00000
1319.85801	15854.20000
1320.82384	15727.00000
1321.78954	15678.80000
1322.75512	15722.80000
1323.72057	15842.80000
1324.68591	15914.00000
1325.65111	16059.60000
1326.61620	16171.20000
1327.58116	16401.70000
1328.54600	16700.30000
1329.51072	16930.00000
1330.47531	17149.10000
1331.43979	17097.90000
1332.40413	17155.00000
1333.36836	17177.10000
1334.33246	17137.50000
1335.29644	17154.80000
1336.26030	17099.80000
1337.22403	17144.20000
1338.18764	17177.30000
1339.15113	17217.80000
1340.11450	17192.70000
1341.07774	17098.60000
1342.04086	16921.80000
1343.00386	16734.90000
1343.96673	16544.70000
1344.92949	16639.90000
1345.89211	16470.30000
1346.85462	16365.40000
1347.81701	16330.80000
1348.77927	16227.00000
1349.74141	16254.20000
1350.70342	16195.80000
1351.66532	16222.80000
1352.62709	16337.30000
1353.58874	16553.30000
1354.55026	16589.10000
1355.51167	16837.50000
1356.47295	17010.20000
1357.43411	17079.30000
1358.39515	17265.30000
1359.35606	17531.20000
1360.31685	17661.20000
1361.27752	17677.10000
1362.23807	17713.70000
1363.19849	17701.40000
1364.15880	17652.70000
1365.11898	17662.80000
1366.07904	17573.50000
1367.03897	17411.40000
1367.99878	17390.10000
1368.95848	17425.90000
1369.91805	17270.90000
1370.87749	17211.50000
1371.83682	17123.20000
1372.79602	17069.80000
1373.75510	17018.10000
1374.71406	16982.60000
1375.67290	16952.60000
1376.63161	16820.10000
1377.59020	16801.00000
1378.54867	16747.40000
1379.50702	16788.50000
1380.46525	16799.20000
1381.42335	16886.20000
1382.38133	16724.70000
1383.33919	16768.10000
1384.29693	16948.10000
1385.25455	16925.70000
1386.21204	16981.70000
1387.16942	17080.90000
1388.12667	17160.60000
1389.08380	17289.50000
1390.04080	17442.10000
1390.99769	17632.90000
1391.95445	17877.00000
1392.91109	18038.00000
1393.86762	18144.50000
1394.82401	18166.70000
1395.78029	18106.10000
1396.73645	18026.90000
1397.69248	17976.30000
1398.64839	17872.90000
1399.60418	17827.50000
1400.55985	17667.60000
1401.51540	17666.00000
1402.47082	17575.40000
1403.42613	17482.50000
1404.38131	17346.80000
1405.33637	17330.70000
1406.29131	17293.40000
1407.24613	17107.70000
1408.20082	17106.60000
1409.15540	17040.80000
1410.10985	17116.40000
1411.06418	17023.40000
1412.01839	17005.50000
1412.97248	17063.70000
1413.92645	17035.30000
1414.88030	17102.30000
1415.83402	17149.90000
1416.78762	17273.70000
1417.74111	17358.70000
1418.69447	17422.80000
1419.64771	17471.20000
1420.60083	17559.30000
1421.55382	17678.30000
1422.50670	17808.40000
1423.45946	18058.60000
1424.41209	18296.50000
1425.36460	18523.70000
1426.31699	18759.80000
1427.26926	19077.20000
1428.22141	19449.20000
1429.17344	19866.40000
1430.12535	20124.10000
1431.07714	20503.40000
1432.02880	20650.10000
1432.98035	20908.50000
1433.93177	21033.50000
1434.88307	21346.80000
1435.83425	21491.30000
1436.78531	21721.00000
1437.73625	22099.60000
1438.68707	22394.70000
1439.63777	22366.00000
1440.58834	22163.60000
1441.53880	21824.30000
1442.48914	21405.50000
1443.43935	20984.40000
1444.38944	20535.90000
1445.33942	20030.10000
1446.28927	19795.90000
1447.23900	19587.80000
1448.18861	19411.30000
1449.13810	19262.00000
1450.08747	19217.90000
1451.03672	19161.70000
1451.98585	19067.60000
1452.93485	18950.90000
1453.88374	18799.70000
1454.83250	18789.50000
1455.78115	18620.40000
1456.72968	18449.70000
1457.67808	18338.70000
1458.62636	18248.40000
1459.57453	18163.80000
1460.52257	18142.60000
1461.47049	18215.00000
1462.41829	18245.90000
1463.36597	18403.70000
1464.31354	18572.10000
1465.26098	18891.20000
1466.20830	19323.80000
1467.15550	19865.40000
1468.10258	20142.50000
1469.04953	20288.10000
1469.99637	20166.10000
1470.94309	20018.90000
1471.88969	20041.40000
1472.83617	20192.00000
1473.78253	20606.70000
1474.72876	21234.10000
1475.67488	21995.70000
1476.62088	22405.50000
1477.56675	22913.80000
1478.51251	23252.50000
1479.45815	23102.10000
1480.40366	22652.10000
1481.34906	22095.00000
1482.29434	21443.60000
1483.23949	21034.40000
1484.18453	20579.80000
1485.12945	20304.60000
1486.07424	20094.00000
1487.01892	20011.10000
1487.96347	19738.00000
1488.90791	19729.70000
1489.85223	19672.90000
1490.79642	19769.50000
1491.74050	19653.00000
1492.68446	19639.80000
1493.62829	19554.60000
1494.57201	19569.90000
1495.51561	19475.30000
1496.45908	19422.60000
1497.40244	19371.10000
1498.34568	19354.70000
1499.28880	19308.30000
1500.23179	19192.30000
1501.17467	19277.60000
1502.11743	19254.00000
1503.06007	19333.50000
1504.00259	19282.90000
1504.94499	19438.60000
1505.88727	19593.90000
1506.82943	19785.80000
1507.77147	19927.10000
1508.71339	20141.40000
1509.65519	20321.20000
1510.59687	20565.80000
1511.53844	20907.10000
1512.47988	21201.30000
1513.42120	21630.50000
1514.36241	22046.00000
1515.30349	22413.80000
1516.24446	23040.50000
1517.18530	23645.10000
1518.12603	24233.30000
1519.06664	24883.70000
1520.00712	25569.90000
1520.94749	26377.00000
1521.88774	27043.60000
1522.82787	27728.20000
1523.76788	28331.70000
1524.70777	28954.20000
1525.64754	29560.20000
1526.58719	29986.00000
1527.52673	30594.30000
1528.46614	30687.90000
1529.40544	31122.80000
1530.34461	31638.00000
1531.28367	32035.40000
1532.22260	32557.30000
1533.16142	32892.00000
1534.10012	33004.60000
1535.03870	33197.80000
1535.97716	33010.40000
1536.91550	32865.30000
1537.85372	32525.20000
1538.79183	32041.70000
1539.72981	31650.30000
1540.66768	31213.40000
1541.60542	30680.50000
1542.54305	30220.60000
1543.48056	29594.10000
1544.41795	29053.40000
1545.35522	28539.70000
1546.29237	28133.30000
1547.22941	27493.00000
1548.16632	27164.40000
1549.10312	26683.80000
1550.03979	25993.10000
1550.97635	25671.40000
1551.91279	25405.00000
1552.84911	25155.40000
1553.78531	24823.70000
1554.72139	24497.10000
1555.65736	24174.80000
1556.59320	24023.00000
1557.52893	23695.00000
1558.46454	23497.50000
1559.40003	23334.70000
1560.33540	23111.20000
1561.27065	22931.90000
1562.20578	22718.40000
1563.14080	22592.90000
1564.07569	22406.80000
1565.01047	22181.10000
1565.94513	21989.70000
1566.87967	21967.60000
1567.81409	21862.90000
1568.74840	21789.10000
1569.68258	21682.80000
1570.61665	21677.80000
1571.55060	21528.30000
1572.48443	21442.80000
1573.41814	21270.40000
1574.35173	21121.20000
1575.28521	20985.70000
1576.21856	20781.50000
1577.15180	20574.80000
1578.08492	20458.60000
1579.01792	20292.10000
1579.95081	20119.80000
1580.88357	19953.80000
1581.81622	19926.10000
1582.74875	19855.80000
1583.68116	19784.20000
1584.61345	19702.00000
1585.54562	19658.80000
1586.47768	19635.00000
1587.40962	19743.70000
1588.34144	19730.90000
1589.27314	19765.90000
1590.20472	19861.50000
1591.13619	19954.00000
1592.06753	20088.00000
1592.99876	20280.50000
1593.92988	20534.30000
1594.86087	20631.50000
1595.79174	20878.70000
1596.72250	20996.80000
1597.65314	21185.50000
1598.58366	21463.80000
1599.51407	21698.10000
1600.44435	22064.20000
1601.37452	22390.60000
1602.30457	22746.20000
1603.23450	23095.90000
1604.16432	23257.00000
1605.09402	23273.00000
1606.02359	23156.50000
1606.95306	22685.20000
1607.88240	22136.90000
1608.81162	21584.30000
1609.74073	21094.90000
1610.66972	20611.80000
1611.59860	20169.50000
1612.52735	19798.40000
1613.45599	19551.70000
1614.38451	19239.30000
1615.31291	19159.90000
1616.24119	18966.50000
1617.16936	18881.00000
1618.09741	18761.10000
1619.02534	18502.00000
1619.95316	18339.90000
1620.88085	18226.80000
1621.80843	18108.60000
1622.73589	18125.70000
1623.66324	17901.40000
1624.59046	17822.40000
1625.51757	17709.90000
1626.44457	17663.90000
1627.37144	17559.60000
1628.29820	17550.90000
1629.22484	17547.20000
1630.15136	17429.70000
1631.07777	17404.50000
1632.00405	17373.60000
1632.93022	17336.60000
1633.85628	17220.60000
1634.78221	17153.60000
1635.70803	17216.10000
1636.63374	17150.50000
1637.55932	17185.50000
1638.48479	17109.70000
1639.41014	16992.00000
1640.33537	17005.00000
1641.26049	16986.40000
1642.18549	16952.10000
1643.11037	16903.70000
1644.03513	16870.20000
1644.95978	16865.50000
1645.88431	16791.70000
1646.80872	16821.20000
1647.73302	16833.20000
1648.65720	16682.40000
1649.58126	16739.10000
1650.50521	16684.00000
1651.42904	16612.60000
1652.35275	16681.40000
1653.27634	16638.80000
1654.19982	16579.40000
1655.12318	16558.60000
1656.04643	16466.70000
1656.96955	16494.70000
1657.89256	16522.40000
1658.81546	16482.60000
1659.73823	16475.00000
1660.66089	16416.70000
1661.58344	16415.50000
1662.50586	16501.50000
1663.42817	16424.90000
1664.35037	16362.20000
1665.27244	16437.90000
1666.19440	16448.30000
1667.11625	16411.90000
1668.03797	16466.80000
1668.95958	16356.50000
1669.88108	16414.60000
1670.80245	16367.60000
1671.72371	16344.60000
1672.64486	16323.50000
1673.56588	16384.20000
1674.48679	16431.50000
1675.40759	16434.60000
1676.32827	16380.20000
1677.24883	16321.80000
1678.16927	16384.20000
1679.08960	16350.30000
1680.00981	16338.00000
1680.92991	16298.30000
1681.84989	16343.10000
1682.76975	16326.30000
1683.68949	16312.10000
1684.60912	16373.70000
1685.52864	16355.30000
1686.44803	16338.30000
1687.36732	16349.60000
1688.28648	16329.60000
1689.20553	16323.80000
1690.12446	16266.00000
1691.04328	16336.40000
1691.96198	16282.00000
1692.88056	16291.10000
1693.79903	16259.20000
1694.71738	16253.60000
1695.63562	16250.60000
1696.55373	16290.10000
1697.47174	16324.90000
1698.38962	16294.70000
1699.30740	16267.10000
1700.22505	16249.90000
1701.14259	16243.00000
1702.06001	16263.40000
1702.97732	16256.80000
1703.89451	16322.10000
1704.81158	16227.80000
1705.72854	16312.60000
1706.64539	16248.10000
1707.56211	16240.30000
1708.47872	16219.10000
1709.39522	16251.30000
1710.31160	16225.60000
1711.22786	16227.20000
1712.14401	16154.50000
1713.06004	16224.00000
1713.97596	16225.70000
1714.89176	16188.90000
1715.80744	16212.00000
1716.72301	16268.10000
1717.63847	16252.40000
1718.55380	16178.90000
1719.46903	16175.60000
1720.38413	16187.70000
1721.29912	16119.20000
1722.21400	16189.40000
1723.12876	16175.40000
1724.04340	16143.00000
1724.95793	16205.00000
1725.87234	16115.00000
1726.78664	16156.80000
1727.70082	16135.70000
1728.61488	16186.60000
1729.52883	16175.60000
1730.44267	16066.40000
1731.35639	16085.90000
1732.26999	16111.90000
1733.18348	16083.40000
1734.09685	16159.40000
1735.01011	16060.60000
1735.92325	16129.70000
1736.83628	16118.40000
1737.74919	16077.40000
1738.66199	16096.80000
1739.57467	16075.00000
1740.48723	16132.70000
1741.39968	16191.40000
1742.31202	16096.00000
1743.22424	16119.20000
1744.13634	16152.20000
1745.04833	16097.10000
1745.96021	16050.90000
1746.87197	16131.00000
1747.78361	16157.40000
1748.69514	16183.80000
1749.60655	16086.50000
1750.51785	16141.00000
1751.42903	16073.20000
1752.34010	16132.30000
1753.25105	16126.00000
1754.16189	16152.90000
1755.07261	16166.40000
1755.98322	16151.40000
1756.89371	16209.00000
1757.80409	16147.30000
1758.71436	16147.10000
1759.62450	16213.60000
1760.53454	16173.20000
1761.44445	16159.00000
1762.35426	16192.70000
1763.26395	16157.90000
1764.17352	16165.30000
1765.08298	16140.80000
1765.99232	16071.30000
1766.90155	16101.90000
1767.81066	16139.90000
1768.71966	16039.90000
1769.62855	16093.00000
1770.53732	16090.40000
1771.44597	16138.10000
1772.35451	16105.70000
1773.26294	16171.50000
1774.17125	16121.80000
1775.07944	16143.70000
1775.98753	16230.20000
1776.89549	16103.70000
1777.80335	16188.50000
1778.71108	16078.50000
1779.61871	16183.50000
1780.52621	16080.80000
1781.43361	16154.20000
1782.34089	16148.50000
1783.24805	16172.60000
1784.15510	16121.80000
1785.06204	16117.60000
1785.96886	16132.10000
1786.87557	16163.70000
1787.78216	16079.70000
1788.68864	16031.80000
1789.59500	16013.10000
1790.50125	15982.90000
1791.40739	16021.20000
1792.31341	15937.10000
1793.21931	15968.80000
1794.12510	16102.20000
1795.03078	16019.00000
1795.93634	16063.80000
1796.84179	16128.90000
1797.74713	16105.80000
1798.65235	16201.90000
1799.55745	16175.20000
1800.46245	16262.60000
1801.36732	16285.20000
1802.27209	16225.30000
1803.17674	16231.20000
1804.08127	16223.10000
1804.98569	16258.30000
1805.89000	16223.50000
1806.79419	16217.90000
1807.69827	16218.60000
1808.60224	16230.40000
1809.50609	16287.70000
1810.40982	16293.00000
1811.31345	16259.90000
1812.21696	16273.70000
1813.12035	16252.70000
1814.02363	16188.20000
1814.92680	16270.30000
1815.82985	16269.40000
1816.73279	16251.60000
1817.63562	16271.10000
1818.53833	16252.60000
1819.44092	16236.40000
1820.34341	16329.30000
1821.24578	16273.00000
1822.14803	16234.90000
1823.05017	16278.20000
1823.95220	16291.40000
1824.85412	16239.50000
1825.75592	16263.60000
1826.65760	16217.30000
1827.55918	16288.80000
1828.46064	16241.40000
1829.36198	16276.40000
1830.26322	16237.30000
1831.16433	16308.60000
1832.06534	16255.10000
1832.96623	16266.00000
1833.86701	16354.10000
1834.76767	16346.70000
1835.66822	16367.00000
1836.56866	16348.90000
1837.46898	16319.70000
1838.36919	16328.70000
1839.26929	16383.60000
1840.16927	16351.50000
1841.06914	16341.90000
1841.96890	16422.70000
1842.86854	16295.10000
1843.76807	16415.40000
1844.66748	16374.30000
1845.56679	16374.20000
1846.46598	16375.30000
1847.36505	16388.30000
1848.26401	16416.50000
1849.16286	16416.00000
1850.06160	16403.30000
1850.96022	16432.80000
1851.85873	16447.50000
1852.75713	16364.80000
1853.65541	16451.10000
1854.55358	16467.00000
1855.45163	16438.30000
1856.34958	16468.40000
1857.24741	16448.00000
1858.14512	16505.90000
1859.04273	16445.90000
1859.94022	16457.10000
1860.83759	16465.90000
1861.73486	16433.50000
1862.63201	16487.60000
1863.52905	16511.20000
1864.42597	16467.80000
1865.32278	16553.90000
1866.21948	16500.60000
1867.11607	16488.30000
1868.01254	16523.90000
1868.90890	16576.90000
1869.80515	16524.80000
1870.70128	16591.30000
1871.59730	16507.90000
1872.49321	16581.70000
1873.38901	16624.10000
1874.28469	16535.60000
1875.18026	16524.70000
1876.07571	16597.80000
1876.97106	16585.60000
1877.86629	16584.20000
1878.76141	16632.20000
1879.65641	16719.10000
1880.55130	16730.00000
1881.44608	16621.40000
1882.34075	16642.60000
1883.23531	16630.80000
1884.12975	16686.20000
1885.02408	16686.30000
1885.91829	16679.10000
1886.81240	16622.90000
1887.70639	16718.90000
1888.60027	16677.50000
1889.49403	16696.40000
1890.38769	16725.90000
1891.28123	16674.40000
1892.17466	16665.10000
1893.06797	16741.60000
1893.96118	16661.60000
1894.85427	16749.70000
1895.74724	16684.10000
1896.64011	16793.40000
1897.53286	16680.50000
1898.42550	16686.90000
1899.31803	16757.50000
1900.21045	16747.90000
1901.10275	16777.50000
1901.99494	16809.00000
1902.88702	16830.30000
1903.77899	16764.30000
1904.67084	16799.80000
1905.56259	16775.20000
1906.45422	16751.00000
1907.34573	16809.20000
1908.23714	16784.10000
1909.12843	16777.90000
1910.01961	16800.20000
1910.91068	16858.20000
1911.80164	16778.40000
1912.69248	16871.80000
1913.58321	16837.10000
1914.47383	16802.30000
1915.36434	16902.10000
1916.25474	16825.90000
1917.14502	16872.60000
1918.03519	16921.60000
1918.92525	16890.90000
1919.81520	16872.60000
1920.70503	16922.50000
1921.59476	16873.00000
1922.48437	16919.90000
1923.37387	16965.20000
1924.26325	16980.60000
1925.15253	17002.80000
1926.04169	17012.70000
1926.93075	17030.00000
1927.81968	16962.60000
1928.70851	17030.50000
1929.59723	17058.40000
1930.48583	17041.70000
1931.37432	17069.30000
1932.26270	17062.80000
1933.15097	17082.40000
1934.03913	17137.60000
1934.92718	17119.30000
1935.81511	17051.70000
1936.70293	17160.90000
1937.59064	17156.10000
1938.47824	17113.70000
1939.36572	17137.60000
1940.25310	17144.50000
1941.14036	17114.30000
1942.02751	17221.80000
1942.91455	17102.20000
1943.80148	17217.80000
1944.68830	17278.90000
1945.57500	17218.90000
1946.46160	17199.00000
1947.34808	17234.20000
1948.23445	17262.80000
1949.12071	17192.30000
1950.00685	17300.20000
1950.89289	17297.00000
1951.77881	17333.70000
1952.66463	17257.00000
1953.55033	17329.10000
1954.43592	17318.90000
1955.32140	17265.60000
1956.20676	17296.70000
1957.09202	17358.80000
1957.97716	17274.10000
1958.86220	17244.80000
1959.74712	17371.80000
1960.63193	17298.50000
1961.51663	17335.10000
1962.40121	17363.00000
1963.28569	17428.00000
1964.17006	17294.80000
1965.05431	17423.90000
1965.93845	17412.70000
1966.82248	17361.60000
1967.70641	17401.10000
1968.59021	17401.10000
1969.47391	17410.10000
1970.35750	17509.10000
1971.24098	17499.40000
1972.12434	17399.50000
1973.00759	17471.70000
1973.89074	17450.20000
1974.77377	17453.90000
1975.65669	17553.60000
1976.53950	17506.00000
1977.42220	17522.50000
1978.30478	17577.40000
1979.18726	17605.90000
1980.06963	17546.40000
1980.95188	17514.10000
1981.83402	17594.50000
1982.71606	17545.10000
1983.59798	17633.20000
1984.47979	17606.00000
1985.36149	17630.90000
1986.24308	17598.60000
1987.12456	17776.10000
1988.00592	17633.40000
1988.88718	17667.00000
1989.76833	17661.40000
1990.64936	17644.10000
1991.53029	17777.20000
1992.41110	17591.60000
1993.29180	17716.40000
1994.17240	17695.10000
1995.05288	17756.20000
1995.93325	17696.20000
1996.81351	17782.30000
1997.69366	17765.60000
1998.57370	17784.20000
1999.45362	17752.10000
2000.33344	17718.60000
2001.21315	17783.10000
2002.09275	17769.20000
2002.97223	17853.80000
2003.85161	17818.60000
2004.73087	17743.20000
2005.61003	17758.40000
2006.48907	17817.90000
2007.36800	17846.70000
2008.24683	17831.80000
2009.12554	17842.40000
2010.00414	17794.60000
2010.88263	17779.90000
2011.76101	17684.50000
2012.63929	17894.50000
2013.51745	17908.30000
2014.39550	17856.90000
2015.27344	17967.70000
2016.15127	17962.10000
2017.02898	17878.60000
2017.90659	17990.60000
2018.78409	17853.30000
2019.66148	18008.40000
2020.53876	18018.50000
2021.41593	17989.10000
2022.29298	17987.20000
2023.16993	17954.60000
2024.04677	17997.60000
2024.92350	18060.40000
2025.80011	18039.50000
2026.67662	18075.40000
2027.55302	17997.50000
2028.42930	18010.20000
2029.30548	18056.80000
2030.18155	18003.40000
2031.05750	18068.00000
2031.93335	18049.50000
2032.80909	18063.80000
2033.68471	18122.20000
2034.56023	18114.80000
2035.43564	18081.40000
2036.31093	18190.80000
2037.18612	18101.50000
2038.06120	18085.90000
2038.93616	18123.70000
2039.81102	18155.20000
2040.68577	18171.00000
2041.56040	18175.50000
2042.43493	18103.70000
2043.30935	18158.50000
2044.18366	18249.20000
2045.05785	18205.10000
2045.93194	18244.90000
2046.80592	18188.60000
2047.67979	18253.80000
2048.55355	18244.90000
2049.42720	18252.70000
2050.30074	18185.60000
2051.17417	18223.50000
2052.04749	18235.10000
2052.92070	18290.10000
2053.79380	18142.00000
2054.66679	18123.90000
2055.53967	18170.30000
2056.41244	18134.70000
2057.28510	18131.30000
2058.15766	18059.70000
2059.03010	18308.00000
