600LP,,600LP1,,600LP2,,550LP,,600SP800N,,600SP800N1,,530SP,,GSBS,,550LP2,,530SP2,,530SP_HI,,
Wavelength (nm),Abs,Wavelength (nm),%T,Wavelength (nm),%T,Wavelength (nm),%T,Wavelength (nm),%T,Wavelength (nm),%T,Wavelength (nm),%T,Wavelength (nm),%T,Wavelength (nm),%T,Wavelength (nm),%T,Wavelength (nm),%T,
800.0541382,0.02885507233,650.0537109,93.92353058,749.9371338,94.32791901,749.9371338,80.84915161,749.9371338,0.04917700589,749.9371338,0.03853470087,749.9371338,10.3850069,749.9371338,0.03444389999,749.9371338,0.1235434413,749.9371338,12.48944473,800.0541382,30.74379349,
795.0581055,0.031092586,649.0315552,94.08599091,748.9477539,94.3587265,748.9477539,80.39440155,748.9477539,0.01801936701,748.9477539,-0.02818640694,748.9477539,7.570318222,748.9477539,0.1170186698,748.9477539,0.04084439203,748.9477539,8.974711418,798.9447632,33.84690094,
790.0521851,0.02485692687,648.0090332,94.07646942,747.9580078,94.21257019,747.9580078,79.92386627,747.9580078,0.02379603311,747.9580078,-0.02622659877,747.9580078,5.717478752,747.9580078,-0.04473200068,747.9580078,-0.005191908218,747.9580078,6.653055668,797.9736938,37.81358337,
785.036377,0.02515739761,646.9862061,94.06573486,746.9678955,94.0043335,746.9678955,79.7051239,746.9678955,-0.04114216194,746.9678955,-0.03462892026,746.9678955,4.655351162,746.9678955,0.08989998698,746.9678955,-0.02750246227,746.9678955,5.091876984,797.0021973,42.95652008,
780.0107422,0.03084289469,645.9630737,94.00009155,745.977478,93.87197876,745.977478,79.42349243,745.977478,0.03355870023,745.977478,-0.001383994473,745.977478,3.825929403,745.977478,0.1634432375,745.977478,0.006243309937,745.977478,4.218080044,796.0303345,48.61152649,
774.9753418,0.02912842482,644.9396362,93.88794708,744.9866943,93.62568665,744.9866943,79.22345734,744.9866943,-0.04456826672,744.9866943,-0.05905867368,744.9866943,3.300199986,744.9866943,0.2114660144,744.9866943,-0.01914222538,744.9866943,3.509716272,795.0581055,55.86217117,
769.9302979,0.02494964004,644.0621338,93.81620789,743.9955444,93.54096222,743.9955444,79.02659607,743.9955444,0.001961882226,743.9955444,0.07678576559,743.9955444,2.797538519,743.9955444,0.1330919564,743.9955444,0.0326721333,743.9955444,3.042947054,793.9465332,65.49951935,
765.0161743,0.02647872083,643.038147,93.73040771,743.0040283,93.3453064,743.0040283,78.95155334,743.0040283,0.0173933804,743.0040283,-0.01913836971,743.0040283,2.511073828,743.0040283,0.2314461172,743.0040283,0.04898700118,743.0040283,2.700938463,792.9735107,75.43679047,
759.9522095,0.02990775555,642.013855,93.7173233,742.012207,93.28822327,742.012207,78.8223877,742.012207,0.05384500325,742.012207,0.04216267914,742.012207,2.235610247,742.012207,0.1737042516,742.012207,0.01145108324,742.012207,2.407001972,792.0001221,84.32650757,
755.0197754,0.02686931193,640.9892578,93.7950058,741.0200195,93.31658173,741.0200195,78.82275391,741.0200195,0.0425334014,741.0200195,0.02050953545,741.0200195,2.09664917,741.0200195,0.3165238202,741.0200195,0.07591358572,741.0200195,2.184725285,791.0263672,91.87882233,
749.9371338,0.02591116168,639.9643555,93.88930511,740.0274658,93.35767365,740.0274658,78.96372223,740.0274658,0.06080361083,740.0274658,0.0778387785,740.0274658,1.941911101,740.0274658,0.2678140402,740.0274658,-0.008362118155,740.0274658,2.07938242,790.0521851,95.67723083,
744.9866943,0.02745679207,638.9391479,94.07102203,739.0345459,93.55752563,739.0345459,79.13677979,739.0345459,0.0243962314,739.0345459,0.04483887926,739.0345459,1.949319482,739.0345459,0.2810546458,739.0345459,0.01728423312,739.0345459,2.024909019,788.9384155,93.77954102,
740.0274658,0.02924907953,638.0601807,94.14529419,738.0413208,93.71451569,738.0413208,79.45178223,738.0413208,0.04150199145,738.0413208,-0.009923225269,738.0413208,2.060006142,738.0413208,0.3074322343,738.0413208,0.0421038866,738.0413208,1.984071732,787.9634399,85.43317413,
735.0594482,0.02597005107,637.0343628,94.28235626,737.0477295,93.84511566,737.0477295,79.61108398,737.0477295,0.006569073536,737.0477295,-0.02614507638,737.0477295,2.149249315,737.0477295,0.2845371366,737.0477295,0.04847382382,737.0477295,2.098463774,786.9881592,73.34375763,
729.9404907,0.02438396402,636.0083008,94.26567841,736.053772,94.08548737,736.053772,79.93732452,736.053772,-0.02052027546,736.053772,0.05937397853,736.053772,2.402352571,736.053772,0.3088284731,736.053772,0.04809960723,736.053772,2.244371176,786.0124512,60.87395096,
724.9549561,0.02949710749,634.9819336,94.23910522,735.0594482,94.28936005,735.0594482,80.41551208,735.0594482,0.01857343875,735.0594482,0.03232261166,735.0594482,3.004864693,735.0594482,0.2383473068,735.0594482,0.01442875899,735.0594482,2.730455399,785.036377,49.94826126,
719.9608765,0.02786013111,633.9552612,94.04930878,734.0648193,94.46809387,734.0648193,80.97126007,734.0648193,-0.008631043136,734.0648193,0.02276591398,734.0648193,4.205091953,734.0648193,0.1978787184,734.0648193,0.02502090111,734.0648193,3.656586647,784.0599365,40.59950256,
714.958252,0.02444020845,632.9282837,93.88931274,733.0698242,94.50839233,733.0698242,81.42524719,733.0698242,0.01110998634,733.0698242,-0.04700514302,733.0698242,7.002387047,733.0698242,0.1786141843,733.0698242,0.0273063574,733.0698242,5.625977993,782.9435425,32.7465477,
709.9472046,0.02818848751,632.0477905,93.82190704,731.932312,94.52128601,731.932312,81.96642303,731.932312,0.03251810372,731.932312,-0.020176908,731.932312,20.86830521,731.932312,0.1434888989,731.932312,0.03601433337,731.932312,13.98680782,781.9663086,27.67018127,
705.0712891,0.02751489729,631.0202637,93.813591,730.9365845,94.45150757,730.9365845,82.62485504,730.9365845,0.004324284382,730.9365845,-0.01318188012,730.9365845,58.05567551,730.9365845,0.1693322808,730.9365845,0.003849399975,730.9365845,42.91562271,780.9887085,23.57938576,
700.0437622,0.02432080172,629.9924316,93.86704254,729.9404907,94.26870728,729.9404907,83.13980865,729.9404907,0.01154937968,729.9404907,0.04743212089,729.9404907,35.78183365,729.9404907,0.1288757473,729.9404907,0.04875050858,729.9404907,49.61179733,780.0107422,20.27624321,
695.0079956,0.02730573341,628.9643555,93.96891785,728.9440918,94.08429718,728.9440918,83.51914978,728.9440918,0.004533663858,728.9440918,0.02008592896,728.9440918,9.310669899,728.9440918,0.1490103006,728.9440918,0.0677806437,728.9440918,23.11964417,779.0324097,17.37983704,
689.9639893,0.02801958472,627.9359131,94.2926712,727.9473267,93.86203766,727.9473267,83.93805695,727.9473267,0.001229890273,727.9473267,-0.002167117549,727.9473267,2.938356638,727.9473267,0.1127132922,727.9473267,0.04654938355,727.9473267,6.778727531,778.0537109,15.14191151,
685.0562744,0.02517253906,627.0541992,94.31434631,726.9501953,93.57445526,726.9501953,84.31092834,726.9501953,0.04386831447,726.9501953,0.01052780543,726.9501953,1.291400075,726.9501953,0.118039161,726.9501953,-0.001554246177,726.9501953,2.347258568,776.9346924,13.33388996,
679.9962769,0.02858993411,626.0252075,94.06137085,725.9527588,93.41474915,725.9527588,84.691185,725.9527588,0.06952263415,725.9527588,0.04029950872,725.9527588,0.6231135726,725.9527588,0.1228419617,725.9527588,0.07736934721,725.9527588,0.9337701797,775.9552002,12.12077236,
674.9282227,0.02584599145,624.9959106,93.945961,724.9549561,93.35636139,724.9549561,85.05535889,724.9549561,-0.0086638676,724.9549561,0.0580268912,724.9549561,0.350373745,724.9549561,0.1568758786,724.9549561,0.001047525206,724.9549561,0.4687374532,774.9753418,11.06977654,
669.9973755,0.02568521909,623.9663696,93.75374603,723.9567871,93.25162506,723.9567871,85.26407623,723.9567871,0.03289432451,723.9567871,0.0269002337,723.9567871,0.2272268534,723.9567871,0.1893968284,723.9567871,0.05886214972,723.9567871,0.2780945301,773.9951172,10.24572086,
665.059021,0.02871353552,622.9365234,93.68787384,722.958313,93.36053467,722.958313,85.36787415,722.958313,0.007422340568,722.958313,0.01470843982,722.958313,0.1605443358,722.958313,0.1792258024,722.958313,-0.01458497159,722.958313,0.2002953738,773.0145264,9.709355354,
659.9677124,0.02485846169,622.0535278,93.57283783,721.9595337,93.49848175,721.9595337,85.47283936,721.9595337,0.01089451928,721.9595337,0.00527902646,721.9595337,0.09724966437,721.9595337,0.2027873397,721.9595337,0.05658921972,721.9595337,0.09207004309,772.0335693,9.31529808,
655.0143433,0.02773191594,621.0231323,93.61623383,720.9603271,93.67993927,720.9603271,85.42754364,720.9603271,0.0217884481,720.9603271,0.03123786673,720.9603271,0.1042740867,720.9603271,0.2011009008,720.9603271,0.04527590051,720.9603271,0.08715391159,771.0522461,8.906701088,
650.0537109,0.02660486102,619.9924316,93.61437225,719.9608765,93.89296722,719.9608765,85.32748413,719.9608765,-0.01400585473,719.9608765,-0.01480528433,719.9608765,0.0804335773,719.9608765,0.2507002652,719.9608765,0.0178384874,719.9608765,0.06251271069,769.9302979,8.785736084,
644.9396362,0.02785681933,618.9614868,93.63215637,718.9609985,94.17582703,718.9609985,85.29577637,718.9609985,0,718.9609985,-0.008711051196,718.9609985,0.04604155943,718.9609985,0.2791312635,718.9609985,0.02508217841,718.9609985,0.07995367795,768.9481812,8.791986465,
639.9643555,0.02687561698,617.9301758,93.61827087,717.9608154,94.17463684,717.9608154,84.90765381,717.9608154,0.01658667065,717.9608154,0.01759600267,717.9608154,0.04826890677,717.9608154,0.2798603773,717.9608154,0.01060885284,717.9608154,0.03177896142,767.9657593,8.884488106,
634.9819336,0.0274918694,617.0460205,93.51872253,716.9603271,94.47914124,716.9603271,84.69821167,716.9603271,0.03112532943,716.9603271,0.03329326585,716.9603271,0.001081564464,716.9603271,0.2710667253,716.9603271,0.02126705088,716.9603271,0.06055477262,766.9829102,9.092604637,
629.9924316,0.02627569251,616.0141602,93.54409027,715.9594727,94.46725464,715.9594727,84.34307861,715.9594727,0.02237665839,715.9594727,-0.0229793787,715.9594727,0.03548740596,715.9594727,0.307316035,715.9594727,-0.0330998823,715.9594727,0.03590524569,765.9996948,9.591158867,
624.9959106,0.02781034261,614.9820557,93.65588379,714.958252,94.3667984,714.958252,83.86091614,714.958252,0.01054232568,714.958252,0,714.958252,0.01984065585,714.958252,0.2581148744,714.958252,0.03474070877,714.958252,0.03675293922,765.0161743,10.36797333,
619.9924316,0.02866613865,613.949646,94.11104584,713.9567261,94.30030823,713.9567261,83.57022858,713.9567261,0.02855682932,713.9567261,0.02840159088,713.9567261,-0.0006188417901,713.9567261,0.2231200486,713.9567261,0.007613535039,713.9567261,0.03966875747,764.0322266,11.08799267,
614.9820557,0.02668660693,613.0645142,94.26792908,712.954834,94.20898438,712.954834,83.40828705,712.954834,0.02032346092,712.954834,-0.001849178108,712.954834,-0.003972226288,712.954834,0.2105048895,712.954834,0.007199536078,712.954834,0.03827632591,763.0479736,12.3626318,
609.9648438,0.02822047472,612.0315552,94.34288025,711.9526367,94.11556244,711.9526367,83.06685638,711.9526367,0.00361740496,711.9526367,0.03751065582,711.9526367,0.03581029922,711.9526367,0.1923901886,711.9526367,-0.02182675339,711.9526367,0.07623913139,762.0633545,14.41498852,
604.9407959,0.04949092865,610.9983521,94.19322205,710.9500732,93.80923462,710.9500732,82.62919617,710.9500732,0.0179828573,710.9500732,0.008541913703,710.9500732,0.02204546891,710.9500732,0.1743276864,710.9500732,0.0404541865,710.9500732,-0.01049538516,760.9376221,17.64489174,
600.0580444,1.006543756,609.9648438,93.86920166,709.9472046,93.62908173,709.9472046,82.33429718,709.9472046,-0.04451820627,709.9472046,0.03365422413,709.9472046,0.007180677727,709.9472046,0.1719489843,709.9472046,0.009350388311,709.9472046,0.009432300925,759.9522095,22.3961792,
595.020752,2.456726551,608.9310303,93.6124649,708.9439697,93.60401154,708.9439697,82.09868622,708.9439697,-0.01236358378,708.9439697,0.0373875536,708.9439697,0.05350478366,708.9439697,0.1487775594,708.9439697,0.02246853337,708.9439697,0.04773246497,758.9664307,29.84054756,
589.9768677,2.989161253,608.0446777,93.7569046,707.9404297,93.63121033,707.9404297,81.94139862,707.9404297,0.0218798127,707.9404297,-0.00532275252,707.9404297,0.02445553802,707.9404297,0.1450038701,707.9404297,-0.0109819714,707.9404297,0.07605676353,757.9802856,42.38842392,
584.9263306,3.391407013,607.0103149,94.14649963,706.9365234,93.73351288,706.9365234,81.87184143,706.9365234,-0.003192743286,706.9365234,0.01901192963,706.9365234,0.03555031121,706.9365234,0.1535754651,706.9365234,0.0003440796281,706.9365234,0.02607852779,756.9938354,62.50891876,
580.0181885,10,605.975708,94.17987061,705.932312,93.90803528,705.932312,81.80115509,705.932312,0.03426134959,705.932312,0.02089405805,705.932312,0.03102525137,705.932312,0.160945788,705.932312,0.01189699862,705.932312,0.02778514475,756.006958,84.0399704,
574.954895,10,604.9407959,93.10400391,705.0712891,94.08487701,705.0712891,81.90545654,705.0712891,0.03220954537,705.0712891,0.02981006168,705.0712891,0.0007110848092,705.0712891,0.2254306823,705.0712891,-0.02404728346,705.0712891,0.01105801668,755.0197754,90.21144867,
570.0343628,3.872435331,604.0534668,89.62181854,704.0664673,94.20896912,704.0664673,81.9730835,704.0664673,0.02503668889,704.0664673,0.03676761314,704.0664673,0.004367750604,704.0664673,0.2290790975,704.0664673,0.05530865118,704.0664673,0.00513362512,754.0322266,77.10948944,
564.9585571,3.088604212,603.0180054,81.47799683,703.0612793,94.35527039,703.0612793,82.1248703,703.0612793,0.01081287209,703.0612793,0.01386443339,703.0612793,0.01292088814,703.0612793,0.2632409036,703.0612793,0.06925205886,703.0612793,0.01199047454,753.0443115,53.586586,
560.0259399,4.407459736,601.9822998,63.54349899,702.0557861,94.63500977,702.0557861,82.5514679,702.0557861,0.01679076441,702.0557861,0.02488320693,702.0557861,-0.006997126155,702.0557861,0.31010589,702.0557861,0.05090331659,702.0557861,0.0120190559,752.0560303,32.16971588,
554.9376831,10,600.9462891,38.63351822,701.0499268,94.63123322,701.0499268,82.80774689,701.0499268,-0.009766608477,701.0499268,0.009553514421,701.0499268,-0.01576784626,701.0499268,0.3655868471,701.0499268,0,701.0499268,0.03189288452,751.0674438,20.18401909,
549.9932251,10,600.0580444,23.32071304,700.0437622,94.45731354,700.0437622,83.01036835,700.0437622,-0.01285878941,700.0437622,0.009958377108,700.0437622,0.0003542545601,700.0437622,0.3755765855,700.0437622,-0.05008568242,700.0437622,-0.00375284953,749.9371338,12.96089172,
545.0429688,10,599.0214844,10.24654865,699.0372925,94.48083496,699.0372925,83.5776825,699.0372925,0.03083414398,699.0372925,0.03465157747,699.0372925,0.06550754607,699.0372925,0.3790690303,699.0372925,0.0408564955,699.0372925,0.003264841856,748.9477539,9.18769455,
539.9367065,10,597.9846802,3.750801563,698.0304565,94.31472778,698.0304565,83.90871429,698.0304565,-0.03424207866,698.0304565,0.02095837332,698.0304565,0.01325737964,698.0304565,0.3233207762,698.0304565,0.006940998137,698.0304565,0.04051856697,747.9580078,6.691632271,
534.9749146,3.747068644,596.9475708,1.512910247,697.0233154,94.04361725,697.0233154,84.09532928,697.0233154,-0.01477923337,697.0233154,-0.02113702334,697.0233154,0.07358995825,697.0233154,0.2454751879,697.0233154,-0.04643381014,697.0233154,0.01167591009,746.9678955,5.115362167,
530.0074463,10,596.0584106,0.8082050681,696.0158081,93.84499359,696.0158081,84.60139465,696.0158081,0.04982404783,696.0158081,-0.003198181745,696.0158081,0.04616448283,696.0158081,0.2626906633,696.0158081,0.1227857769,696.0158081,-0.02142503299,745.977478,4.120043755,
525.0344238,3.712930679,595.020752,0.3798085749,695.0079956,93.75511932,695.0079956,84.89717102,695.0079956,0.01945404708,695.0079956,-0.008028041571,695.0079956,-0.02292313427,695.0079956,0.2430396378,695.0079956,4.058553696,695.0079956,-0.009177403525,744.9866943,3.542245626,
520.0559082,10,593.9828491,0.2772122324,693.9998169,93.56674194,693.9998169,85.08115387,693.9998169,0.04035096243,693.9998169,0.0365848802,693.9998169,0.070077084,693.9998169,0.1853211224,693.9998169,19.44167709,693.9998169,0.03814168647,743.9955444,3.137135506,
515.0719604,3.375719786,592.9446411,0.180411011,692.991394,93.43205261,692.991394,85.28860474,692.991394,-0.01301059779,692.991394,-0.03328334913,692.991394,0.04164202511,692.991394,0.2237248421,692.991394,45.51578903,692.991394,-0.009246196598,743.0040283,2.616165161,
509.9312744,3.690535784,592.0545654,0.1828101575,691.9825439,93.6296463,691.9825439,85.31231689,691.9825439,0.05326776952,691.9825439,0.007129093166,691.9825439,0.01327528991,691.9825439,0.2475778311,691.9825439,37.61872482,691.9825439,-0.02452076599,742.012207,2.352762699,
504.9363403,3.830539227,591.0158691,0.1477591246,690.9734497,93.76200104,690.9734497,85.26108551,690.9734497,0.02273063362,690.9734497,0.01069259178,690.9734497,0.0358367227,690.9734497,0.1625608802,690.9734497,40.58434677,690.9734497,0.004771020263,741.0200195,2.174284697,
499.9361267,10,589.9768677,0.07587896287,689.9639893,93.91174316,689.9639893,85.13295746,689.9639893,-0.02494938299,689.9639893,-0.0009189267294,689.9639893,0.03546892107,689.9639893,0.211158216,689.9639893,53.04256821,689.9639893,-0.04519251361,740.0274658,2.06274581,
494.9306641,3.573786259,588.937561,0.1213987619,688.9542236,94.08389282,688.9542236,84.94457245,688.9542236,0.02731219493,688.9542236,0.07613931596,688.9542236,0.04549151659,688.9542236,0.245329991,688.9542236,61.17166901,688.9542236,-0.01880075224,739.0345459,2.025050163,
490.0719299,10,588.0465698,0.1572348475,687.9440918,94.28975677,687.9440918,84.62671661,687.9440918,0.03689225391,687.9440918,-0.003742300672,687.9440918,0.0177332554,687.9440918,0.184917137,687.9440918,55.58559799,687.9440918,0.006054380909,738.0413208,2.019393921,
485.0562744,4.439904213,587.0067749,0.1057178974,686.9336548,94.34277344,686.9336548,84.26733398,686.9336548,-0.02789884247,686.9336548,0.04024109989,686.9336548,-0.003235558979,686.9336548,0.2263804972,686.9336548,51.56224823,686.9336548,0.01432331186,737.0477295,2.135450125,
480.0355225,3.407721519,585.9666748,0.1371135265,686.0673218,94.3598175,686.0673218,83.75453186,686.0673218,0.01385930553,686.0673218,0.07985906303,686.0673218,-0.00453995401,686.0673218,0.2950257957,686.0673218,56.16236496,686.0673218,0.02308966592,736.053772,2.373250723,
475.0097351,4.026397228,584.9263306,0.1004346311,685.0562744,94.30020142,685.0562744,83.12409973,685.0562744,0.04803771153,685.0562744,0.04870399088,685.0562744,0.01098184194,685.0562744,0.3321142495,685.0562744,58.47700119,685.0562744,0.03120805509,735.0594482,2.777956009,
469.9789429,3.548746109,584.0344238,0.06755046546,684.0449219,94.1260376,684.0449219,82.51410675,684.0449219,0.01024166308,684.0449219,0.05675600097,684.0449219,0.0009337258525,684.0449219,0.3356733024,684.0449219,58.45851135,684.0449219,0.01040683966,734.0648193,3.760245323,
464.9432373,4.106853008,582.9935303,0.0686705485,683.0332642,93.94654846,683.0332642,81.96974945,683.0332642,0.04051856697,683.0332642,0.0892046392,683.0332642,0.0004253825755,683.0332642,0.427737087,683.0332642,55.49622345,683.0332642,0.005548707675,733.0698242,5.807640076,
460.0554504,4.079259396,581.9524536,0.06451613456,682.0212402,93.78557587,682.0212402,81.45104218,682.0212402,-0.01768195443,682.0212402,0.008392287418,682.0212402,0.01047834847,682.0212402,0.3114791214,682.0212402,52.51927948,682.0212402,0.009087228216,731.932312,14.39370537,
455.0101624,3.945265293,581.0598145,0.06354042143,681.0089111,93.65316772,681.0089111,81.01292419,681.0089111,0.03142563626,681.0089111,-0.001568144537,681.0089111,0.01958046295,681.0089111,0.2544978261,681.0089111,53.49137878,681.0089111,-0.003674753942,730.9365845,44.27126694,
449.9601135,3.795951366,580.0181885,0.03949562833,679.9962769,93.60838318,679.9962769,80.43870544,679.9962769,-0.0124470247,679.9962769,0.04149422422,679.9962769,-0.028959319,679.9962769,0.2237048447,679.9962769,58.94392014,679.9962769,0.00780951092,729.9404907,49.11463928,
445.0585632,3.648803234,578.9762573,0.02331550792,678.9833374,93.59816742,678.9833374,79.93996429,678.9833374,-0.001323599718,678.9833374,0.007731197402,678.9833374,0.008100438863,678.9833374,0.1474493593,678.9833374,66.67227936,678.9833374,0.03749608248,728.9440918,21.81747627,
439.9992371,10,577.934082,0.05458449572,677.9700317,93.58997345,677.9700317,79.5030365,677.9700317,-0.0356869325,677.9700317,0.01168710552,677.9700317,0.03328919038,677.9700317,0.1193344146,677.9700317,71.32652283,677.9700317,0.0008556954563,727.9473267,6.09581852,
434.9353027,3.776416063,577.0405273,0.04182143882,676.9564209,93.8323288,676.9564209,79.21483612,676.9564209,0.03070901707,676.9564209,0.0314988941,676.9564209,0.05333505571,676.9564209,0.1014401466,676.9564209,73.88253784,676.9564209,0.02715091035,726.9501953,2.22239542,
430.0204468,3.75601244,575.9978638,0.03123400174,675.9425049,94.01509094,675.9425049,79.08262634,675.9425049,0.06300709397,675.9425049,0.0711696595,675.9425049,0.02366245165,675.9425049,0.01983266696,675.9425049,74.99884033,675.9425049,0.006749949418,725.9527588,0.8887990117,
424.9475403,10,574.954895,0.05799115822,674.9282227,94.24516296,674.9282227,78.96802521,674.9282227,0.06112536043,674.9282227,0.01979023404,674.9282227,0.06275548786,674.9282227,0.0627746433,674.9282227,75.1950531,674.9282227,0.09268232435,724.9549561,0.4390242994,
420.0241394,4.460718155,574.0606689,0.04940967262,674.0586548,94.33872223,674.0586548,79.02806091,674.0586548,0.001551138121,674.0586548,0.02656606585,674.0586548,0.1100146547,674.0586548,0.0219168514,674.0586548,75.37205505,674.0586548,0.05153802782,723.9567871,0.326990962,
414.9425049,3.468236685,573.0172119,0.0286621768,673.0438232,94.37314606,673.0438232,79.22910309,673.0438232,-0.01954700984,673.0438232,0.02946627513,673.0438232,0.0569604449,673.0438232,0.03813076764,673.0438232,75.54518127,673.0438232,0.02049183473,722.958313,0.199437812,
410.0106812,10,571.9735107,0.01297509857,672.0286255,94.40529633,672.0286255,79.48296356,672.0286255,-0.02442352101,672.0286255,0.0262039341,672.0286255,0.05675905198,672.0286255,0.008173919283,672.0286255,77.90062714,672.0286255,0.0197019726,721.9595337,0.1560510546,
405.0748291,10,570.9294434,0.02673492767,671.0131836,94.21582031,671.0131836,79.87130737,671.0131836,0.04744267091,671.0131836,-0.01552145369,671.0131836,0.0004773056717,671.0131836,0.03691866621,671.0131836,84.54447937,671.0131836,0.03046999685,720.9603271,0.06448257715,
399.9805603,3.918164492,570.0343628,0.04691232741,669.9973755,94.04859924,669.9973755,80.50945282,669.9973755,0.01164823677,669.9973755,0.005760633387,669.9973755,0.06326337159,669.9973755,0.03012097441,669.9973755,86.00167084,669.9973755,0.01718563214,719.9608765,0.09457346052,
395.0366211,3.610888481,568.9898682,-0.00220229174,668.9812622,93.79916382,668.9812622,81.00056458,668.9812622,0.01186475158,668.9812622,0.03838732839,668.9812622,0.06895590574,668.9812622,0.05864937976,668.9812622,86.52539063,668.9812622,0.01052331831,718.9609985,0.05708713457,
389.9341125,10,567.9450684,0.005286497995,667.9648438,93.73791504,667.9648438,81.50047302,667.9648438,0.06551445276,667.9648438,-0.02274059132,667.9648438,0.02985196747,667.9648438,0.05009321123,667.9648438,86.95433044,667.9648438,-0.01458811853,717.9608154,0.03053562343,
384.9822998,3.206794262,567.0493774,0.02576896735,666.9481201,93.53443909,666.9481201,82.04044342,666.9481201,0.005322210025,666.9481201,0.08819559216,666.9481201,0.05221601948,666.9481201,0.06434293091,666.9481201,87.747612,666.9481201,0.03444301337,716.9603271,0.0364994891,
380.0267029,3.905403376,566.0040894,-0.002429982182,665.9310303,93.5174942,665.9310303,82.60510254,665.9310303,0.03370531648,665.9310303,-0.01172649022,665.9310303,0.07785245031,665.9310303,0.1397975981,665.9310303,87.91927338,665.9310303,-0.04926206917,715.9594727,0.02765305713,
375.0673523,3.570415258,564.9585571,0.03168486804,665.059021,93.53598022,665.059021,83.17041779,665.059021,0.007046665996,665.059021,0.0425144434,665.059021,0.03006399423,665.059021,0.09841662645,665.059021,86.78570557,665.059021,-0.008636655286,714.958252,0.03167128935,
369.9491272,3.244992018,564.0621338,0.03822511435,664.0413818,93.76634216,664.0413818,83.84561157,664.0413818,0.003433032427,664.0413818,0.03755047917,664.0413818,0.02923991345,664.0413818,0.2156126499,664.0413818,87.27674103,664.0413818,0.08112984151,713.9567261,0.02902837843,
364.9822998,3.209510088,563.0161133,0.01866022125,663.0234375,93.98743439,663.0234375,84.18349457,663.0234375,0.05757427961,663.0234375,0.007349133492,663.0234375,0.01429901924,663.0234375,0.3494516015,663.0234375,87.82966614,663.0234375,-0.01996942796,712.954834,0.01581907272,
360.0118408,10,561.9697876,0.02083611116,662.005188,94.1305542,662.005188,84.46353912,662.005188,-0.005124022719,662.005188,0.001205036417,662.005188,0.01472686138,662.005188,0.3618660867,662.005188,88.16989136,662.005188,-0.002872762503,711.9526367,0.01088226959,
355.0378723,4.451273441,561.0727539,0.0181174539,660.9865723,94.23646545,660.9865723,84.5970459,660.9865723,-0.004223630764,660.9865723,0.02209751122,660.9865723,0.06270324439,660.9865723,0.3286147416,660.9865723,88.43635559,660.9865723,0.009550085291,710.9500732,0.007983141579,
350.0603638,10,560.0259399,0.03220387548,659.9677124,94.31520081,659.9677124,84.61470032,659.9677124,0.004963314161,659.9677124,-0.0109565556,659.9677124,-0.003182890825,659.9677124,0.2403440475,659.9677124,88.45719147,659.9677124,-0.0006892315578,709.9472046,0.02101783082,
344.9236755,3.500207663,558.9788818,0.01659483276,658.9484863,94.30172729,658.9484863,84.43180847,658.9484863,-0.02871632762,658.9484863,0.04895740375,658.9484863,0.07157972455,658.9484863,0.196066156,658.9484863,88.32532501,658.9484863,-0.00972014945,708.9439697,0.01834926009,
339.939209,10,557.9315186,0.008343790658,657.9289551,94.00501251,657.9289551,84.04466248,657.9289551,0.0099732792,657.9289551,0.05147181824,657.9289551,0.04056033492,657.9289551,0.1187501624,657.9289551,87.86226654,657.9289551,0.02563799173,707.9404297,-0.02489033528,
334.9513855,3.291571379,557.0336304,0.01513900328,657.0548706,93.91347504,657.0548706,83.58966827,657.0548706,-0.0008703084895,657.0548706,-0.007741454989,657.0548706,0.02110519633,657.0548706,0.1015458852,657.0548706,87.03943634,657.0548706,0.02378036082,706.9365234,0.02524545416,
329.9602356,10,555.9857788,0.006994024385,656.03479,93.60097504,656.03479,82.90087891,656.03479,-0.005038316827,656.03479,0.02978971787,656.03479,0.04102661088,656.03479,0.1540927738,656.03479,86.49459839,656.03479,0.01643908769,705.932312,0.0140791731,
324.9658508,4.586571693,554.9376831,0.04484103993,655.0143433,93.58649445,655.0143433,82.01725006,655.0143433,0.05704138428,655.0143433,-0.00692298403,655.0143433,-0.003218270373,655.0143433,0.1230661273,655.0143433,85.66473389,655.0143433,0.06939208508,705.0712891,0.01855180971,
319.9682312,3.761811256,554.0391235,0.04658403993,653.9936523,93.54473114,653.9936523,81.43703461,653.9936523,0.02260618284,653.9936523,-0.02705705352,653.9936523,0.03166687489,653.9936523,0.1973570585,653.9936523,84.94544983,653.9936523,0.002936594887,704.0664673,0.04390988499,
314.9674683,3.665501356,552.9906006,0.03801307455,652.9726563,93.68232727,652.9726563,80.80562592,652.9726563,0.02889624983,652.9726563,-0.01489484683,652.9726563,0.02513359301,652.9726563,0.1562111378,652.9726563,84.30764771,652.9726563,0.05096021295,703.0612793,0.01635040157,
309.963562,4.30933857,551.9417725,0.003407790326,651.9512939,93.86472321,651.9512939,80.13378143,651.9512939,0.008856662549,651.9512939,-0.01304122992,651.9512939,0.007296971511,651.9512939,0.1514715403,651.9512939,83.49346161,651.9512939,0.01277796086,702.0557861,0.03534443304,
304.9566345,3.919495106,551.0425415,0.01929982007,650.9296875,94.06692505,650.9296875,79.41829681,650.9296875,0.05223291367,650.9296875,0.03167867661,650.9296875,0.03315245733,650.9296875,0.2608255148,650.9296875,82.96466827,650.9296875,-0.001968945144,701.0499268,0.003432301572,
299.9466858,10,549.9932251,0.02352144197,650.0537109,94.20249176,650.0537109,78.97698212,650.0537109,0.06961331517,650.0537109,0.05360909179,650.0537109,-0.006956038997,650.0537109,0.3104776144,650.0537109,82.64016724,650.0537109,0.004495350178,700.0437622,0.01796852797,
294.9337463,4.169166088,548.9436646,-0.006795817986,649.0315552,94.26404572,649.0315552,78.52498627,649.0315552,0.03952075914,649.0315552,0.0550067462,649.0315552,0.04871501029,649.0315552,0.4016353786,649.0315552,82.38815308,649.0315552,0.01509892754,,,
290.074707,4.509959221,548.0438232,0.01716042683,648.0090332,94.14891052,648.0090332,78.13095093,648.0090332,0.02197662368,648.0090332,0.05099621043,648.0090332,0.01366571523,648.0090332,0.3735414147,648.0090332,82.17108917,648.0090332,0.003984284587,,,
285.0560913,3.981305361,546.9937744,0.02066897973,646.9862061,94.03342438,646.9862061,77.88812256,646.9862061,-0.02714768052,646.9862061,0.02173640393,646.9862061,-0.002326362766,646.9862061,0.2624404728,646.9862061,82.28398132,646.9862061,0.007027167827,,,
280.034668,4.158595085,545.9434204,0.01564517803,645.9630737,93.84590149,645.9630737,77.93649292,645.9630737,0.08666279912,645.9630737,0.02160217986,645.9630737,-0.02719967999,645.9630737,0.1523416042,645.9630737,82.42360687,645.9630737,0.06010166183,,,
275.0104675,10,545.0429688,0.01537715737,644.9396362,93.63763428,644.9396362,78.07774353,644.9396362,0.06562913209,644.9396362,-0.02786251716,644.9396362,0.03745277226,644.9396362,0.1160368323,644.9396362,82.65270233,644.9396362,-0.01360193454,,,
269.9835815,4.41572237,543.9921875,0.02180060744,644.0621338,93.60220337,644.0621338,78.46298218,644.0621338,-0.02025669068,644.0621338,0.0634008646,644.0621338,0.05411344394,644.0621338,0.05031234398,644.0621338,83.27158356,644.0621338,0,,,
264.9539795,3.423898935,542.9411011,0.011078774,643.038147,93.68128204,643.038147,79.08850098,643.038147,0.01322829071,643.038147,0.0307953544,643.038147,0.08640581369,643.038147,0.09131734818,643.038147,84.05903625,643.038147,0.01930130646,,,
259.9217834,4.365270138,542.0400391,0.003668238875,642.013855,93.80965424,642.013855,79.80489349,642.013855,0.01317496225,642.013855,0.02472178265,642.013855,0.02725856006,642.013855,0.03986213729,642.013855,84.73150635,642.013855,0.02792884409,,,
255.0444031,3.496603012,540.9885254,0.01415730268,640.9892578,93.91347504,640.9892578,80.69536591,640.9892578,0.06201728806,640.9892578,0.07086067647,640.9892578,0.08825909346,640.9892578,0.04342933372,640.9892578,85.70705414,640.9892578,0.03934026882,,,
250.0072021,10,539.9367065,0.02569682896,639.9643555,94.08338928,639.9643555,81.43845367,639.9643555,0.1010190472,639.9643555,0.07535819709,639.9643555,-0.01330467779,639.9643555,-0.01089408714,639.9643555,86.41934204,639.9643555,0.01264837198,,,
244.9975433,10,539.0349731,0.01519620232,638.9391479,94.28131866,638.9391479,82.39664459,638.9391479,0.0371450372,638.9391479,0.08104167879,638.9391479,-0.009394584224,638.9391479,-0.0003655975161,638.9391479,87.51934052,638.9391479,0.01668042317,,,
239.9855194,4.257577419,537.9827271,0.01667702571,638.0601807,94.31773376,638.0601807,83.18637085,638.0601807,0.04260996357,638.0601807,-0.01859452575,638.0601807,0.02606327087,638.0601807,-0.03858862817,638.0601807,88.40600586,638.0601807,0.02165131271,,,
234.9711304,10,536.9302368,0.01360259484,637.0343628,94.27020264,637.0343628,84.19882965,637.0343628,-0.01671393774,637.0343628,0.1002996713,637.0343628,-0.01900812984,637.0343628,0.01341747306,637.0343628,89.27413177,637.0343628,0.006440110039,,,
229.9544525,3.886600018,536.0278931,0.01252468023,636.0083008,94.08822632,636.0083008,84.85134125,636.0083008,0.01002971828,636.0083008,0.0308144521,636.0083008,0.03275518864,636.0083008,-0.010344401,636.0083008,90.3837738,636.0083008,0.03723312542,,,
224.9355011,4.101202488,534.9749146,0.01236984413,634.9819336,93.92604828,634.9819336,85.44946289,634.9819336,0.01233450137,634.9819336,-0.00285857846,634.9819336,-0.0009401991265,634.9819336,0.05939604715,634.9819336,90.74459076,634.9819336,-0.022802772,,,
220.0712891,3.688153028,534.0721436,0.01141493302,633.9552612,93.86133575,633.9552612,85.73441315,633.9552612,0.0440514572,633.9552612,-0.00771796843,633.9552612,0.04075965658,633.9552612,0.006963541731,633.9552612,90.7824707,633.9552612,-0.0270866733,,,
215.0480499,3.932138443,533.0186768,0.01481302455,632.9282837,93.78325653,632.9282837,85.6753006,632.9282837,0.03760848567,632.9282837,0.02054189332,632.9282837,0.0450786911,632.9282837,0.07537863404,632.9282837,90.54629517,632.9282837,-0.01397249755,,,
210.0226898,10,531.9649658,0.01061794162,632.0477905,93.84529877,632.0477905,85.54666138,632.0477905,0.04273969308,632.0477905,0.1058308855,632.0477905,0.002068701433,632.0477905,0.1679355204,632.0477905,90.14460754,632.0477905,-0.004777149297,,,
204.9952698,3.508831501,531.0616455,0.01401244104,631.0202637,93.99382019,631.0202637,84.95628357,631.0202637,0.07030391693,631.0202637,0.01517079212,631.0202637,0.05723267049,631.0202637,0.2494291663,631.0202637,89.77475739,631.0202637,-0.02080070786,,,
199.9654236,3.411360502,530.0074463,0.01201474573,629.9924316,94.10731506,629.9924316,84.34368134,629.9924316,0.03775915504,629.9924316,0.05163738504,629.9924316,-0.003649643157,629.9924316,0.2814708948,629.9924316,89.14406586,629.9924316,0.02894604206,,,
,,528.953064,0.009477509186,628.9643555,94.18686676,628.9643555,83.35559845,628.9643555,0.0673963353,628.9643555,0.0621541515,628.9643555,0.01495100465,628.9643555,0.1275342256,628.9643555,88.2149353,628.9643555,0.009470248595,,,
,,528.0490723,0.01669776253,627.9359131,94.34566498,627.9359131,82.53050232,627.9359131,0.08750853688,627.9359131,0.06708111614,627.9359131,0.01913061552,627.9359131,0.05501759425,627.9359131,87.40879822,627.9359131,-0.03099789843,,,
,,526.9941406,0.005926214159,627.0541992,94.22425079,627.0541992,81.79190826,627.0541992,0.1105524972,627.0541992,0.09483414888,627.0541992,0.04794192687,627.0541992,0.01169814169,627.0541992,86.43247223,627.0541992,0.01294594444,,,
,,525.9390259,0.02609786205,626.0252075,93.96224976,626.0252075,80.8405304,626.0252075,0.1370981187,626.0252075,0.06938409805,626.0252075,-0.01281864569,626.0252075,-0.001836088486,626.0252075,85.27774811,626.0252075,0.01585726999,,,
,,525.0344238,0.02164219692,624.9959106,93.71404266,624.9959106,79.94262695,624.9959106,0.1103098243,624.9959106,0.09669630975,624.9959106,-0.004378195852,624.9959106,0.03924512863,624.9959106,84.56790161,624.9959106,0.01914839447,,,
,,523.9788208,0.03165985644,623.9663696,93.56850433,623.9663696,79.23801422,623.9663696,0.1473286599,623.9663696,0.1653055251,623.9663696,0.001251058653,623.9663696,0.009280578233,623.9663696,83.8404541,623.9663696,0.03566140309,,,
,,523.0738525,0.02766559273,622.9365234,93.6735611,622.9365234,78.60269165,622.9365234,0.2206609994,622.9365234,0.1971418709,622.9365234,0.003243441926,622.9365234,0.0292366948,622.9365234,82.83911133,622.9365234,0.08169575036,,,
,,522.0178223,0.02240613848,622.0535278,93.67500305,622.0535278,78.33798218,622.0535278,0.2515378296,622.0535278,0.2922793329,622.0535278,0.03618567064,622.0535278,0.02388120629,622.0535278,81.24851227,622.0535278,0.05335877836,,,
,,520.9614868,0.02538133413,621.0231323,93.72033691,621.0231323,78.2779007,621.0231323,0.4301913977,621.0231323,0.4401347041,621.0231323,0.03630766645,621.0231323,-0.01028978731,621.0231323,80.18751526,621.0231323,0.005526283756,,,
,,520.0559082,0.01824992709,619.9924316,93.74687958,619.9924316,78.35986328,619.9924316,0.5703118443,619.9924316,0.5633490086,619.9924316,0.02204265073,619.9924316,-0.01410360448,619.9924316,79.4426651,619.9924316,0.04244818166,,,
,,518.9991455,0.007759570144,618.9614868,93.6412735,618.9614868,78.74320221,618.9614868,0.8446513414,618.9614868,0.8774994016,618.9614868,-0.0119499173,618.9614868,0.07557961345,618.9614868,79.86736298,618.9614868,0.04681448266,,,
,,517.9421387,0.01374801528,617.9301758,93.5447998,617.9301758,79.32852936,617.9301758,1.308786273,617.9301758,1.303362131,617.9301758,0.0006821405259,617.9301758,0.01306990907,617.9301758,80.42773438,617.9301758,0.01193377003,,,
,,517.0359497,0.005551554263,617.0460205,93.67034149,617.0460205,80.00888824,617.0460205,2.015212536,617.0460205,2.104688168,617.0460205,-0.003776450176,617.0460205,0.002147316933,617.0460205,81.20101929,617.0460205,0.0346983932,,,
,,515.9785156,0.01500418689,616.0141602,93.86843872,616.0141602,80.96735382,616.0141602,3.301599979,616.0141602,3.401690722,616.0141602,0.01662746258,616.0141602,0.0534992069,616.0141602,82.06742096,616.0141602,-0.01723876595,,,
,,515.0719604,0.02679383941,614.9820557,94.27305603,614.9820557,81.83261871,614.9820557,5.708656311,614.9820557,5.718241215,614.9820557,-0.004976640921,614.9820557,0.06306668371,614.9820557,82.87410736,614.9820557,-0.01181621011,,,
,,514.0140381,0.02211597189,613.949646,94.5045929,613.949646,82.97663879,613.949646,10.06849289,613.949646,10.37324142,613.949646,0.01878980361,613.949646,0.01587204263,613.949646,83.9793396,613.949646,0.03296892717,,,
,,512.9558716,0.01716079935,613.0645142,94.50000763,613.0645142,83.59059906,613.0645142,14.89700413,613.0645142,14.75022125,613.0645142,0.01881128177,613.0645142,0.05979799852,613.0645142,84.51088715,613.0645142,-0.02432299592,,,
,,512.0487061,0.01750245318,612.0315552,94.21943665,612.0315552,84.28076172,612.0315552,24.85113335,612.0315552,24.51614952,612.0315552,0.01803360507,612.0315552,0.02743316814,612.0315552,85.01979065,612.0315552,0.05153854191,,,
,,510.9901123,0.005689620972,610.9983521,93.77857208,610.9983521,84.92203522,610.9983521,39.96211243,610.9983521,40.71969604,610.9983521,-0.009385142475,610.9983521,0.01707421429,610.9983521,85.46634674,610.9983521,0.0110686468,,,
,,509.9312744,0.00279799453,609.9648438,93.63549042,609.9648438,85.29719543,609.9648438,58.33269882,609.9648438,59.01548767,609.9648438,-0.004643031396,609.9648438,0.02698007971,609.9648438,85.6799469,609.9648438,-0.009776254185,,,
,,509.0234985,-0.002524139127,608.9310303,93.87210846,608.9310303,85.40705872,608.9310303,73.12993622,608.9310303,73.51156616,608.9310303,0.01220587734,608.9310303,0.007370393723,608.9310303,85.71065521,608.9310303,-0.03646509722,,,
,,507.9642029,0.008004208095,608.0446777,94.28548431,608.0446777,85.40916443,608.0446777,82.41835022,608.0446777,82.71078491,608.0446777,0.02682706341,608.0446777,0.009299003519,608.0446777,85.45526123,608.0446777,-0.01428448875,,,
,,507.0560608,0.002616493264,607.0103149,93.68273926,607.0103149,85.1855545,607.0103149,87.44997406,607.0103149,87.44796753,607.0103149,0.02823896892,607.0103149,0.0362669304,607.0103149,85.03311157,607.0103149,0.0009987207595,,,
,,505.9963074,-0.000862567802,605.975708,91.49708557,605.975708,84.83071899,605.975708,89.09658051,605.975708,88.99626923,605.975708,0.0175135918,605.975708,0.03723522276,605.975708,85.42487335,605.975708,0.0004775408306,,,
,,504.9363403,0.03270508349,604.9407959,86.76868439,604.9407959,84.37820435,604.9407959,89.55580139,604.9407959,89.52631378,604.9407959,-0.04302751645,604.9407959,0.01525227446,604.9407959,85.88898468,604.9407959,0.01161332149,,,
,,504.0276184,0.008923421614,604.0534668,75.27198029,604.0534668,83.98764038,604.0534668,90.19820404,604.0534668,90.19645691,604.0534668,0.01340156328,604.0534668,0.02111531235,604.0534668,86.36958313,604.0534668,0.02206830494,,,
,,502.9671936,0.01642164402,603.0180054,54.59147263,603.0180054,83.59577942,603.0180054,90.50551605,603.0180054,90.49946594,603.0180054,0.01527974103,603.0180054,0.009567584842,603.0180054,86.71133423,603.0180054,-0.002483351156,,,
,,502.058075,0.01448655222,601.9822998,26.84088707,601.9822998,83.32089996,601.9822998,90.3611908,601.9822998,90.37041473,601.9822998,0.06410516053,601.9822998,0.03447041661,601.9822998,86.37685394,601.9822998,0.03477521241,,,
,,500.9972229,0.03042443097,600.9462891,10.3354435,600.9462891,83.26507568,600.9462891,90.77135468,600.9462891,90.7517395,600.9462891,0.0152527485,600.9462891,0.01375325769,600.9462891,85.93506622,600.9462891,-0.04792375863,,,
,,499.9361267,0.03593290597,600.0580444,5.153658867,600.0580444,83.28536224,600.0580444,91.0241394,600.0580444,91.04877472,600.0580444,0.01677569374,600.0580444,0.04306521267,600.0580444,85.84247589,600.0580444,0.03319405764,,,
,,499.0264282,0.02328884788,599.0214844,2.16515851,599.0214844,83.50249481,599.0214844,90.73669434,599.0214844,90.7647171,599.0214844,0.01680990122,599.0214844,0.03400559351,599.0214844,86.14922333,599.0214844,-0.0401215516,,,
,,497.9649048,0.01610613614,597.9846802,0.9512291551,597.9846802,83.93477631,597.9846802,90.46240234,597.9846802,90.41934204,597.9846802,0.005360831041,597.9846802,-0.002763515338,597.9846802,86.81009674,597.9846802,-0.003205834189,,,
,,497.0548401,0.03730141371,596.9475708,0.4772322178,596.9475708,84.31690216,596.9475708,90.63227081,596.9475708,90.56407928,596.9475708,0.05009723827,596.9475708,0.03080993146,596.9475708,87.67075348,596.9475708,-0.004740959965,,,
,,495.9928589,0.05662681162,596.0584106,0.3064068854,596.0584106,84.83470154,596.0584106,90.25363159,596.0584106,90.26481628,596.0584106,0.02963630296,596.0584106,0.03003928624,596.0584106,88.46664429,596.0584106,0.01590662822,,,
,,494.9306641,0.01780305058,595.020752,0.1243034229,595.020752,85.22148132,595.020752,90.02906036,595.020752,89.9638443,595.020752,0.0468127951,595.020752,0.04249368608,595.020752,88.46885681,595.020752,0.02211870253,,,
,,494.0200195,0.01756376773,593.9828491,0.1256520152,593.9828491,85.45081329,593.9828491,90.41349792,593.9828491,90.36109924,593.9828491,0.04899537191,593.9828491,0.006709329318,593.9828491,87.57022095,593.9828491,-0.02191766165,,,
,,492.9573975,0.01896686666,592.9446411,0.1478930563,592.9446411,85.45103455,592.9446411,90.6986618,592.9446411,90.63710785,592.9446411,0.03489964455,592.9446411,-0.01521285158,592.9446411,87.37091827,592.9446411,-0.01145680994,,,
,,492.0463562,0.0225586649,592.0545654,0.1268586814,592.0545654,85.36014557,592.0545654,90.38249969,592.0545654,90.42119598,592.0545654,0.01631644927,592.0545654,0.03868592158,592.0545654,86.78647614,592.0545654,-0.03555592149,,,
,,490.9833069,0.01858774759,591.0158691,0.1328770518,591.0158691,84.93254852,591.0158691,90.63321686,591.0158691,90.68061066,591.0158691,0.02913945355,591.0158691,0.03791226819,591.0158691,85.59089661,591.0158691,0.02562916279,,,
,,490.0719299,0.01421038434,589.9768677,0.08812609315,589.9768677,84.30033875,589.9768677,90.83661652,589.9768677,90.81580353,589.9768677,0.0201093927,589.9768677,0.06877536327,589.9768677,84.54305267,589.9768677,-0.0005363567034,,,
,,489.0084229,0.003860495752,588.937561,0.1334679276,588.937561,83.52027893,588.937561,90.33937836,588.937561,90.30687714,588.937561,0.03801544383,588.937561,0.0885745734,588.937561,86.22871399,588.937561,0.0300261341,,,
,,487.9447021,0.02648683451,588.0465698,0.09493098408,588.0465698,82.83370972,588.0465698,90.18686676,588.0465698,90.10211182,588.0465698,0.04903926328,588.0465698,0.05845098197,588.0465698,86.64589691,588.0465698,0.0439023301,,,
,,487.0327454,0.01616384462,587.0067749,0.1382407546,587.0067749,82.26058197,587.0067749,90.14698029,587.0067749,90.11742401,587.0067749,0.01833678782,587.0067749,0.05987263471,587.0067749,86.00408173,587.0067749,0.0006131159607,,,
,,485.9685669,0.01857425272,585.9666748,0.08794417232,585.9666748,81.60323334,585.9666748,89.52723694,585.9666748,89.44922638,585.9666748,0.02091919072,585.9666748,0.04203940183,585.9666748,85.47257233,585.9666748,0.001200905303,,,
,,485.0562744,0.008005488664,584.9263306,0.0540940389,584.9263306,81.21580505,584.9263306,88.88768768,584.9263306,88.84553528,584.9263306,0.001698883134,584.9263306,0.0175854899,584.9263306,85.28659058,584.9263306,0.04341167957,,,
,,483.9916687,0.006843698211,584.0344238,0.03857522085,584.0344238,81.16903687,584.0344238,88.97373962,584.0344238,88.9309082,584.0344238,0.001082988339,584.0344238,0.01658577845,584.0344238,85.46787262,584.0344238,-0.01681327634,,,
,,482.9268799,0.02430783026,582.9935303,0.0831316635,582.9935303,81.43328094,582.9935303,88.54125977,582.9935303,88.47094727,582.9935303,0.03016710654,582.9935303,0.07233351469,582.9935303,85.89510345,582.9935303,-0.01369209774,,,
,,482.0139771,0.01493761223,581.9524536,0.01265180949,581.9524536,82.06427002,581.9524536,87.90564728,581.9524536,87.86753082,581.9524536,0.06737417728,581.9524536,0.0736669153,581.9524536,86.6675415,581.9524536,-0.002656428609,,,
,,480.948761,0.02046317607,581.0598145,0.07848506421,581.0598145,82.60639954,581.0598145,88.01210785,581.0598145,88.05858612,581.0598145,0.004345300607,581.0598145,0.117786482,581.0598145,87.23344421,581.0598145,-0.03248325363,,,
,,480.0355225,0.02240941301,580.0181885,0.04893551394,580.0181885,83.48472595,580.0181885,88.29792023,580.0181885,88.28372955,580.0181885,-0.03883547708,580.0181885,0.1424778253,580.0181885,88.11636353,580.0181885,-0.0362411961,,,
,,478.9698486,0.01380673517,578.9762573,0.03208578378,578.9762573,84.30784607,578.9762573,88.28401947,578.9762573,88.31616211,578.9762573,0.01156734396,578.9762573,0.2034612298,578.9762573,88.92237854,578.9762573,0.01160217263,,,
,,478.0562439,0.01484038215,577.934082,0.04771820456,577.934082,84.9720993,577.934082,88.77461243,577.934082,88.77684784,577.934082,0.01993049309,577.934082,0.4394181073,577.934082,89.49855042,577.934082,0.01762375981,,,
,,476.9901733,0.009192562662,577.0405273,0.03856532276,577.0405273,85.12869263,577.0405273,89.07576752,577.0405273,89.03923035,577.0405273,-0.00497979112,577.0405273,0.7297250628,577.0405273,89.75526428,577.0405273,0.03181312233,,,
,,475.9238892,0.01741937734,575.9978638,0.03877379,575.9978638,84.81643677,575.9978638,89.08417511,575.9978638,89.11539459,575.9978638,0.06358781457,575.9978638,1.695493937,575.9978638,89.0841217,575.9978638,-0.009540420026,,,
,,475.0097351,0.009741729125,574.954895,0.06253862381,574.954895,83.9950943,574.954895,89.74758148,574.954895,89.777771,574.954895,-0.001151814242,574.954895,4.141831875,574.954895,88.3693161,574.954895,-0.01069641486,,,
,,473.9429932,0.02152035758,574.0606689,0.0441005379,574.0606689,83.28807831,574.0606689,90.16259003,574.0606689,90.11574554,574.0606689,-0.006238149013,574.0606689,9.427582741,574.0606689,87.3782196,574.0606689,-0.009538209997,,,
,,473.0285034,0.02714125067,573.0172119,0.01892301627,573.0172119,81.84365082,573.0172119,89.96414185,573.0172119,89.94602203,573.0172119,-0.00367779145,573.0172119,29.56062508,573.0172119,86.02822876,573.0172119,0.02435884811,,,
,,471.9613647,0.0137210153,571.9735107,0.0346387811,571.9735107,80.55067444,571.9735107,90.2315979,571.9735107,90.25932312,571.9735107,0.03796939179,571.9735107,67.28759003,571.9735107,84.86315918,571.9735107,0.0272897426,,,
,,471.0464783,0.003608992556,570.9294434,0.02840983495,570.9294434,79.53413391,570.9294434,90.7452774,570.9294434,90.76062012,570.9294434,0.05004432797,570.9294434,93.57248688,570.9294434,84.11426544,570.9294434,-0.01347766537,,,
,,469.9789429,0.006460663863,570.0343628,0.01554764621,570.0343628,79.15081024,570.0343628,90.47368622,570.0343628,90.45561981,570.0343628,0.007816425525,570.0343628,97.75190735,570.0343628,84.02651215,570.0343628,0.03482554853,,,
,,469.0637207,-0.005566264037,568.9898682,0.0007667012396,568.9898682,79.08815002,568.9898682,90.47601318,568.9898682,90.44489288,568.9898682,0.02990959957,568.9898682,97.84195709,568.9898682,84.40010834,568.9898682,0.01868376322,,,
,,467.9957581,0,567.9450684,0.006631230004,567.9450684,79.61452484,567.9450684,90.73659515,567.9450684,90.69577789,567.9450684,0.06207844615,567.9450684,98.32928467,567.9450684,85.18404388,567.9450684,0.03999232873,,,
,,466.9275818,0.01292566489,567.0493774,-0.01577592641,567.0493774,80.45118713,567.0493774,90.54116821,567.0493774,90.56549835,567.0493774,0.01768673956,567.0493774,98.5324707,567.0493774,86.20186615,567.0493774,0.0212647412,,,
,,466.0118103,0.002523003146,566.0040894,-0.002356661484,566.0040894,81.63635254,566.0040894,90.57550049,566.0040894,90.56529999,566.0040894,0.007994314656,566.0040894,98.07759857,566.0040894,87.54853058,566.0040894,0.02019994147,,,
,,464.9432373,0.01137704868,564.9585571,-0.00505616283,564.9585571,82.78104401,564.9585571,90.53968048,564.9585571,90.54363251,564.9585571,0.05652746186,564.9585571,97.61962128,564.9585571,88.52098083,564.9585571,0.01804061979,,,
,,464.0271301,0.02649959922,564.0621338,-0.003109248355,564.0621338,83.47970581,564.0621338,90.02554321,564.0621338,90.03373718,564.0621338,0.05566548184,564.0621338,97.56661224,564.0621338,89.04258728,564.0621338,0.02765133418,,,
,,462.9581299,0.01574729756,563.0161133,0.006175487302,563.0161133,83.88579559,563.0161133,90.15520477,563.0161133,90.16357422,563.0161133,0.05466109887,563.0161133,97.85079956,563.0161133,89.17259979,563.0161133,0.02240377106,,,
,,462.0416565,0.007798819803,561.9697876,0.01634477079,561.9697876,83.97151947,561.9697876,90.50031281,561.9697876,90.49046326,561.9697876,0.0647950694,561.9697876,98.2492218,561.9697876,88.99388123,561.9697876,0.0238293428,,,
,,460.9722595,0.01039169915,561.0727539,0.007003500126,561.0727539,83.77050781,561.0727539,90.22225952,561.0727539,90.23322296,561.0727539,0.02740546502,561.0727539,98.46655273,561.0727539,88.67749023,561.0727539,0.001983994385,,,
,,460.0554504,0.01672714762,560.0259399,0.004732173868,560.0259399,83.29356384,560.0259399,90.23733521,560.0259399,90.27724457,560.0259399,0.03672062978,560.0259399,98.50808716,560.0259399,87.917099,560.0259399,0.02048581094,,,
,,458.9856262,0.001218776219,558.9788818,0.02890459448,558.9788818,82.30774689,558.9788818,90.62078857,558.9788818,90.64672089,558.9788818,0.03195591643,558.9788818,98.43795013,558.9788818,86.57263184,558.9788818,0.02895795368,,,
,,458.0684814,0.009568442591,557.9315186,0.0172975678,557.9315186,80.60344696,557.9315186,90.32498932,557.9315186,90.35437012,557.9315186,0.02624392509,557.9315186,98.33629608,557.9315186,84.12606812,557.9315186,0.02766953781,,,
,,456.9982605,0.007557310164,557.0336304,-0.007498123217,557.0336304,78.29338074,557.0336304,90.32670593,557.0336304,90.34546661,557.0336304,0.03959543258,557.0336304,98.24604797,557.0336304,81.34307861,557.0336304,0.042711813,,,
,,455.9278564,0.01502770185,555.9857788,0.003084236523,555.9857788,75.25646973,555.9857788,90.49069977,555.9857788,90.47411346,555.9857788,0.04785353318,555.9857788,98.03343201,555.9857788,78.24968719,555.9857788,0.0392709747,,,
,,455.0101624,0.01224275772,554.9376831,0.02635589056,554.9376831,72.72907257,554.9376831,90.29779053,554.9376831,90.26446533,554.9376831,0.0433196649,554.9376831,97.74028778,554.9376831,77.33512878,554.9376831,0.04210653529,,,
,,,,554.0391235,0.0353622213,554.0391235,73.34957123,554.0391235,90.28663635,554.0391235,90.29163361,554.0391235,0.05674844608,554.0391235,97.29000092,554.0391235,81.39854431,554.0391235,0.02756466344,,,
,,,,552.9906006,0.01079339162,552.9906006,78.19844818,552.9906006,90.13847351,552.9906006,90.11430359,552.9906006,0.07645817846,552.9906006,97.03647614,552.9906006,85.45617676,552.9906006,0.05282752588,,,
,,,,551.9417725,-0.002604835667,551.9417725,72.66064453,551.9417725,89.98934937,551.9417725,89.94026184,551.9417725,0.02027134039,551.9417725,97.15514374,551.9417725,61.4678154,551.9417725,0.03053337522,,,
,,,,551.0425415,0.02700990252,551.0425415,47.40761948,551.0425415,90.46889496,551.0425415,90.44561005,551.0425415,0.0617172271,551.0425415,97.5355835,551.0425415,30.36043358,551.0425415,0.03314974904,,,
,,,,549.9932251,0.02396070212,549.9932251,20.06510353,549.9932251,90.52032471,549.9932251,90.50814819,549.9932251,0.07478407025,549.9932251,98.22340393,549.9932251,9.884723663,549.9932251,0.0506159924,,,
,,,,548.9436646,-0.00926485844,548.9436646,6.440404892,548.9436646,90.2195282,548.9436646,90.1969223,548.9436646,0.04934798926,548.9436646,98.91692352,548.9436646,3.145369053,548.9436646,0.05169016495,,,
,,,,548.0438232,-0.001759500941,548.0438232,2.066812038,548.0438232,90.36645508,548.0438232,90.3660202,548.0438232,0.05663782358,548.0438232,99.1581955,548.0438232,1.116526842,548.0438232,0.05509488285,,,
,,,,546.9937744,0.02352753654,546.9937744,0.7725229263,546.9937744,90.10714722,546.9937744,90.09733582,546.9937744,0.06628987938,546.9937744,98.75354767,546.9937744,0.4813364148,546.9937744,0.05273532122,,,
,,,,545.9434204,0.03074511141,545.9434204,0.3202448189,545.9434204,90.07360077,545.9434204,90.08634949,545.9434204,0.07671961933,545.9434204,97.7155304,545.9434204,0.2222629488,545.9434204,0.07488555461,,,
,,,,545.0429688,0.01383976918,545.0429688,0.1740315855,545.0429688,90.20872498,545.0429688,90.18691254,545.0429688,0.08952395618,545.0429688,96.69519806,545.0429688,0.1358590573,545.0429688,0.06640789658,,,
,,,,543.9921875,0.01026781276,543.9921875,0.09494659305,543.9921875,90.00177765,543.9921875,89.98976135,543.9921875,0.1005968302,543.9921875,95.90937805,543.9921875,0.06998276711,543.9921875,0.08487461507,,,
,,,,542.9411011,0.01995927095,542.9411011,0.06647503376,542.9411011,90.18602753,542.9411011,90.14671326,542.9411011,0.1026878953,542.9411011,95.54169464,542.9411011,0.04732428119,542.9411011,0.09785030037,,,
,,,,542.0400391,0.01334416028,542.0400391,0.03297797963,542.0400391,90.41027832,542.0400391,90.38614655,542.0400391,0.148811534,542.0400391,95.93299103,542.0400391,0.01781772822,542.0400391,0.1262097806,,,
,,,,540.9885254,0.01049456652,540.9885254,0.03565687314,540.9885254,90.1840744,540.9885254,90.17002106,540.9885254,0.225840345,540.9885254,96.82945251,540.9885254,0.02354521304,540.9885254,0.2051822841,,,
,,,,539.9367065,0.02587718517,539.9367065,0.04079334438,539.9367065,90.78939819,539.9367065,90.75983429,539.9367065,0.3496632278,539.9367065,97.86445618,539.9367065,0.01910634525,539.9367065,0.3129761815,,,
,,,,539.0349731,0.01664033532,539.0349731,0.01832786202,539.0349731,90.8166275,539.0349731,90.78599548,539.0349731,0.5057832599,539.0349731,98.60848999,539.0349731,0.01827989332,539.0349731,0.4423841238,,,
,,,,537.9827271,0.01623098366,537.9827271,0.01685379446,537.9827271,90.71308136,537.9827271,90.70816803,537.9827271,0.7944524288,537.9827271,98.96140289,537.9827271,0.01170590054,537.9827271,0.6871532798,,,
,,,,536.9302368,0.013024549,536.9302368,0.0187228024,536.9302368,91.280159,536.9302368,91.30056,536.9302368,1.254866362,536.9302368,98.80529022,536.9302368,0.01073518209,536.9302368,1.05391717,,,
,,,,536.0278931,0.02039798722,536.0278931,0.01737633534,536.0278931,91.11412811,536.0278931,91.09081268,536.0278931,2.133328438,536.0278931,98.24160004,536.0278931,0.0154463388,536.0278931,1.804947257,,,
,,,,534.9749146,0.01713394374,534.9749146,0.01903182641,534.9749146,91.2250824,534.9749146,91.1595993,534.9749146,3.938658476,534.9749146,97.39964294,534.9749146,0.0108950492,534.9749146,3.266737938,,,
,,,,534.0721436,0.004970694892,534.0721436,0.008936500177,534.0721436,91.61741638,534.0721436,91.56157684,534.0721436,6.507411003,534.0721436,96.94976807,534.0721436,0.005417717621,534.0721436,5.356467724,,,
,,,,533.0186768,0.02172536589,533.0186768,0.01573290862,533.0186768,91.31665802,533.0186768,91.30966949,533.0186768,11.38493729,533.0186768,96.58182526,533.0186768,0.001755882637,533.0186768,9.405305862,,,
,,,,531.9649658,0.03065140359,531.9649658,0.01549974084,531.9649658,91.35700989,531.9649658,91.27040863,531.9649658,20.12150192,531.9649658,96.3967514,531.9649658,0.01333942171,531.9649658,17.23197174,,,
,,,,531.0616455,0.02052323334,531.0616455,0.006332769524,531.0616455,91.13102722,531.0616455,91.15608978,531.0616455,33.11611557,531.0616455,96.49549866,531.0616455,0.007249454968,531.0616455,27.90356064,,,
,,,,530.0074463,0.008556934074,530.0074463,0.01340687554,530.0074463,91.2292099,530.0074463,91.20062256,530.0074463,53.30554962,530.0074463,96.95083618,530.0074463,0.005308557302,530.0074463,47.1410408,,,
,,,,528.953064,0.009856068529,528.953064,0.006914074533,528.953064,91.5865097,528.953064,91.54476929,528.953064,69.14180756,528.953064,97.46604919,528.953064,0.0004763795878,528.953064,63.03451157,,,
,,,,528.0490723,0.01461017132,528.0490723,0.01385033876,528.0490723,91.14613342,528.0490723,91.16009521,528.0490723,81.85446167,528.0490723,97.95082855,528.0490723,-0.002205867786,528.0490723,77.55332947,,,
,,,,526.9941406,0.00851618126,526.9941406,0.01432607137,526.9941406,91.53435516,526.9941406,91.4691925,526.9941406,88.44606018,526.9941406,98.15364838,526.9941406,0,526.9941406,86.41255951,,,
,,,,525.9390259,-0.002149880398,525.9390259,0.01805211231,525.9390259,91.67043304,525.9390259,91.66503906,525.9390259,91.67943573,525.9390259,98.04360199,525.9390259,0.02238330431,525.9390259,90.46970367,,,
,,,,525.0344238,0.008630504832,525.0344238,0.01090936363,525.0344238,91.40609741,525.0344238,91.3840332,525.0344238,93.02141571,525.0344238,97.57434082,525.0344238,0.004042589571,525.0344238,92.40560913,,,
,,,,523.9788208,0.01642294042,523.9788208,0.02878062427,523.9788208,91.7648468,523.9788208,91.75861359,523.9788208,93.92726898,523.9788208,96.98279572,523.9788208,0.01770869642,523.9788208,93.61522675,,,
,,,,523.0738525,0.0140253501,523.0738525,0.03023996204,523.0738525,91.76243591,523.0738525,91.71653748,523.0738525,94.3455658,523.0738525,96.77140045,523.0738525,0.01576545089,523.0738525,94.11885834,,,
,,,,522.0178223,0.01845145226,522.0178223,0.03328469023,522.0178223,92.08953857,522.0178223,92.06127167,522.0178223,94.62239075,522.0178223,97.06799316,522.0178223,0.01290616766,522.0178223,94.44992828,,,
,,,,520.9614868,0.0262420401,520.9614868,0.009403224103,520.9614868,91.86103058,520.9614868,91.84321594,520.9614868,94.81109619,520.9614868,97.70797729,520.9614868,0.01100320183,520.9614868,94.66635895,,,
,,,,520.0559082,0.01733272895,520.0559082,0.009936071932,520.0559082,91.53330231,520.0559082,91.51182556,520.0559082,94.92747498,520.0559082,98.19244385,520.0559082,0.01578981429,520.0559082,94.82837677,,,
,,,,518.9991455,0.003800964681,518.9991455,0.02274021879,518.9991455,92.03675842,518.9991455,92.01868439,518.9991455,95.04660034,518.9991455,98.67792511,518.9991455,0.01800966263,518.9991455,94.91062164,,,
,,,,517.9421387,0.007799987216,517.9421387,0.009272685274,517.9421387,91.63986206,517.9421387,91.6335144,517.9421387,95.0667572,517.9421387,97.25984955,517.9421387,0.01661184803,517.9421387,94.9532547,,,
,,,,517.0359497,0.008939187974,517.0359497,0.01763087697,517.0359497,91.73108673,517.0359497,91.71224213,517.0359497,95.09119415,517.0359497,87.17451477,517.0359497,0.01449872833,517.0359497,94.99908447,,,
,,,,515.9785156,0.002542577684,515.9785156,-0.00108734041,515.9785156,91.50183105,515.9785156,91.49691772,515.9785156,95.09747314,515.9785156,56.7151413,515.9785156,0.02186856791,515.9785156,95.03544617,,,
,,,,515.0719604,0.01578462683,515.0719604,0.0284581352,515.0719604,91.25812531,515.0719604,91.2550354,515.0719604,95.17491913,515.0719604,33.74876404,515.0719604,0.0196458064,515.0719604,95.07704926,,,
,,,,514.0140381,0.02091671899,514.0140381,0.003091569059,514.0140381,91.5690918,514.0140381,91.608078,514.0140381,95.10398865,514.0140381,12.0518961,514.0140381,0.03024792485,514.0140381,95.06242371,,,
,,,,512.9558716,0.02344606444,512.9558716,0.01257620007,512.9558716,91.35900116,512.9558716,91.38256836,512.9558716,94.97106934,512.9558716,3.834401131,512.9558716,0.03651702031,512.9558716,94.9171524,,,
,,,,512.0487061,0.009102395736,512.0487061,0.04407729581,512.0487061,91.43939209,512.0487061,91.40956116,512.0487061,94.82730865,512.0487061,1.652492404,512.0487061,0.02535525337,512.0487061,94.80252075,,,
,,,,510.9901123,0.02037786692,510.9901123,-0.007683681324,510.9901123,90.93629456,510.9901123,90.94555664,510.9901123,94.69825745,510.9901123,0.6979168653,510.9901123,0.007606763393,510.9901123,94.66998291,,,
,,,,509.9312744,0.005361092743,509.9312744,0.01739573106,509.9312744,90.85231781,509.9312744,90.82550049,509.9312744,94.58494568,509.9312744,0.3658819199,509.9312744,0.007800757885,509.9312744,94.59185791,,,
,,,,509.0234985,-0.0008154715761,509.0234985,-0.01162337232,509.0234985,90.95814514,509.0234985,90.97819519,509.0234985,94.56129456,509.0234985,0.25095433,509.0234985,0.002683102852,509.0234985,94.55450439,,,
,,,,507.9642029,-0.01645373181,507.9642029,0.01269129571,507.9642029,90.89373779,507.9642029,90.88237762,507.9642029,94.58187866,507.9642029,0.1917268932,507.9642029,-0.004351264797,507.9642029,94.47622681,,,
,,,,507.0560608,0.02597155608,507.0560608,0.005728649907,507.0560608,91.33151245,507.0560608,91.31014252,507.0560608,94.59592438,507.0560608,0.1321664751,507.0560608,-0.001523364568,507.0560608,94.46672821,,,
,,,,505.9963074,0.01926677115,505.9963074,0.003401002614,505.9963074,90.88795471,505.9963074,90.95690155,505.9963074,94.71273041,505.9963074,0.07822497189,505.9963074,0.009937638417,505.9963074,94.54815674,,,
,,,,504.9363403,0.01120068412,504.9363403,0.02219833061,504.9363403,91.31748962,504.9363403,91.237854,504.9363403,94.88960266,504.9363403,0.1076220423,504.9363403,0.04064350948,504.9363403,94.77477264,,,
,,,,504.0276184,-0.01314888895,504.0276184,0.0149944583,504.0276184,91.30684662,504.0276184,91.34657288,504.0276184,94.9544754,504.0276184,0.08974053711,504.0276184,0.02485168539,504.0276184,94.80905151,,,
,,,,502.9671936,-0.0009358597454,502.9671936,-0.00420740759,502.9671936,91.11878204,502.9671936,91.12476349,502.9671936,95.05590057,502.9671936,0.06560503691,502.9671936,0.02975588664,502.9671936,94.90724945,,,
,,,,502.058075,-0.003159036627,502.058075,-0.0187735036,502.058075,90.94909668,502.058075,90.94742584,502.058075,95.20183563,502.058075,0.05163790658,502.058075,0.003072170075,502.058075,95.07804871,,,
,,,,500.9972229,0.01328902878,500.9972229,0.02497724257,500.9972229,90.73114777,500.9972229,90.73453522,500.9972229,95.30590057,500.9972229,0.06846494973,500.9972229,0.04229628667,500.9972229,95.23509216,,,
,,,,499.9361267,0.01312895771,499.9361267,0.03404989466,499.9361267,91.19059753,499.9361267,91.17357635,499.9361267,95.46907806,499.9361267,0.0509172231,499.9361267,1.635198116,499.9361267,95.33289337,,,
,,,,499.0264282,0.01780663058,499.0264282,0.01919397339,499.0264282,90.82155609,499.0264282,90.79478455,499.0264282,95.44015503,499.0264282,0.02490911074,499.0264282,99.01784515,499.0264282,95.39618683,,,
,,,,497.9649048,0.01214825176,497.9649048,0.0231848415,497.9649048,90.95452118,497.9649048,90.90901184,497.9649048,95.46692657,497.9649048,0.0455253087,497.9649048,100.1054916,497.9649048,95.37428284,,,
,,,,497.0548401,0.03014029562,497.0548401,0.01406024955,497.0548401,90.78135681,497.0548401,90.77064514,497.0548401,95.47220612,497.0548401,0.05107481405,497.0548401,100.0904083,497.0548401,95.43528748,,,
,,,,495.9928589,0.01246554498,495.9928589,0.0267023854,495.9928589,91.08750916,495.9928589,91.04019165,495.9928589,95.43915558,495.9928589,0.04269238561,495.9928589,100.0871277,495.9928589,95.38651276,,,
,,,,494.9306641,0.02226836607,494.9306641,0.02231317945,494.9306641,91.33747864,494.9306641,91.36071777,494.9306641,95.4153595,494.9306641,0.03705314919,494.9306641,100.0747223,494.9306641,95.3363266,,,
,,,,494.0200195,0.00707064895,494.0200195,0.01875518635,494.0200195,91.36456299,494.0200195,91.31273651,494.0200195,95.34455872,494.0200195,0.04585199431,494.0200195,100.0113144,494.0200195,95.29466248,,,
,,,,492.9573975,0.0115526095,492.9573975,0.003331639804,492.9573975,91.35612488,492.9573975,91.37550354,492.9573975,95.27334595,492.9573975,0.02754691616,492.9573975,100.0380859,492.9573975,95.23339081,,,
,,,,492.0463562,0.01124214381,492.0463562,0.006222873926,492.0463562,91.23304749,492.0463562,91.24318695,492.0463562,95.24850464,492.0463562,0.007198377047,492.0463562,100.0276794,492.0463562,95.19328308,,,
,,,,490.9833069,0.02082353644,490.9833069,0,490.9833069,91.13105774,490.9833069,91.16205597,490.9833069,95.15881348,490.9833069,0.01005620323,490.9833069,99.98696136,490.9833069,95.11386108,,,
,,,,490.0719299,-0.0003048583458,490.0719299,0.005103876349,490.0719299,90.49848938,490.0719299,90.51664734,490.0719299,95.09033203,490.0719299,0.02856210247,490.0719299,99.98154449,490.0719299,95.01905823,,,
,,,,489.0084229,0.01651032269,489.0084229,0.01002055127,489.0084229,90.92937469,489.0084229,90.89901733,489.0084229,94.94194794,489.0084229,0.02012383379,489.0084229,99.96363831,489.0084229,94.8959198,,,
,,,,487.9447021,0.01012433972,487.9447021,0.01302070636,487.9447021,90.18771362,487.9447021,90.23025513,487.9447021,94.85507965,487.9447021,0.01731358841,487.9447021,99.95889282,487.9447021,94.8049469,,,
,,,,487.0327454,0.005629812833,487.0327454,0.004331442527,487.0327454,90.19788361,487.0327454,90.22199249,487.0327454,94.73480225,487.0327454,0.006796138827,487.0327454,99.94696808,487.0327454,94.70908356,,,
,,,,485.9685669,0.01359160058,485.9685669,0.006113534793,485.9685669,90.29515076,485.9685669,90.29335022,485.9685669,94.5761261,485.9685669,0.01389807742,485.9685669,99.92233276,485.9685669,94.53521729,,,
,,,,485.0562744,0.009456921369,485.0562744,0.0161962416,485.0562744,90.31610107,485.0562744,90.30980682,485.0562744,94.48331451,485.0562744,0.01579833589,485.0562744,99.96417999,485.0562744,94.46492767,,,
,,,,483.9916687,0.009786061943,483.9916687,0.0009360200493,483.9916687,90.08881378,483.9916687,90.08466339,483.9916687,94.33017731,483.9916687,0.02228231728,483.9916687,99.96817017,483.9916687,94.31322479,,,
,,,,482.9268799,0.004433970433,482.9268799,0.01090168115,482.9268799,90.33575439,482.9268799,90.32997131,482.9268799,94.12329865,482.9268799,0.0118756108,482.9268799,99.99381256,482.9268799,94.14408112,,,
,,,,482.0139771,0.02598475479,482.0139771,0.01625079475,482.0139771,90.28399658,482.0139771,90.2912674,482.0139771,93.8787384,482.0139771,0.01243758202,482.0139771,99.9991684,482.0139771,93.90842438,,,
,,,,480.948761,0.002962670289,480.948761,0.01427435596,480.948761,90.4233551,480.948761,90.3690567,480.948761,93.61058807,480.948761,0.05145256966,480.948761,99.99487305,480.948761,93.66410065,,,
,,,,480.0355225,0.01281118859,480.0355225,0.02031138353,480.0355225,90.49583435,480.0355225,90.49240112,480.0355225,93.42985535,480.0355225,0.02591114305,480.0355225,99.95146942,480.0355225,93.46838379,,,
,,,,478.9698486,0.02313079871,478.9698486,0.0260851495,478.9698486,90.40756226,478.9698486,90.35501099,478.9698486,93.2359314,478.9698486,0.01682644524,478.9698486,100.0568848,478.9698486,93.2833252,,,
,,,,478.0562439,0.01093095727,478.0562439,0.007101403549,478.0562439,90.78437042,478.0562439,90.76702118,478.0562439,93.05236053,478.0562439,0.058950793,478.0562439,100.0721893,478.0562439,93.10118866,,,
,,,,476.9901733,0.02184676379,476.9901733,0.005100351758,476.9901733,90.81182861,476.9901733,90.78994751,476.9901733,92.99285889,476.9901733,0.02208874747,476.9901733,100.0965805,476.9901733,92.96492767,,,
,,,,475.9238892,0.007671649102,475.9238892,0.007770093158,475.9238892,90.34896088,475.9238892,90.39828491,475.9238892,92.9378891,475.9238892,0.02158237249,475.9238892,100.0391693,475.9238892,92.97169495,,,
,,,,475.0097351,0.01260789856,475.0097351,0.009571573697,475.0097351,90.14599609,475.0097351,90.13000488,475.0097351,92.99562836,475.0097351,0.01452366076,475.0097351,100.0463715,475.0097351,93.00497437,,,
,,,,473.9429932,0.01934187487,473.9429932,0.03081421368,473.9429932,90.46008301,473.9429932,90.42503357,473.9429932,93.24837494,473.9429932,0.0218159277,473.9429932,100.1382217,473.9429932,93.2048111,,,
,,,,473.0285034,0.02258956805,473.0285034,0.01158383209,473.0285034,90.15804291,473.0285034,90.15983582,473.0285034,93.49085999,473.0285034,0.01920122094,473.0285034,100.1025543,473.0285034,93.412117,,,
,,,,471.9613647,0.02281153761,471.9613647,0.005116898101,471.9613647,89.78387451,471.9613647,89.79695892,471.9613647,93.88766479,471.9613647,0.04512408748,471.9613647,100.084343,471.9613647,93.77953339,,,
,,,,471.0464783,0.02226055786,471.0464783,0.01539812982,471.0464783,89.59893036,471.0464783,89.56163788,471.0464783,94.22654724,471.0464783,0.02968544699,471.0464783,100.0595322,471.0464783,94.04029846,,,
,,,,469.9789429,0.01175219845,469.9789429,0.01320379507,469.9789429,89.4133606,469.9789429,89.4151535,469.9789429,94.53140259,469.9789429,0.0213439893,469.9789429,100.063324,469.9789429,94.44297791,,,
,,,,469.0637207,0.01159354113,469.0637207,0.01858600229,469.0637207,89.30690002,469.0637207,89.28730774,469.0637207,94.79531097,469.0637207,0.003941279836,469.0637207,100.0417557,469.0637207,94.66610718,,,
,,,,467.9957581,0.009454131126,467.9957581,0.01419889554,467.9957581,88.9186554,467.9957581,88.99105072,467.9957581,95.04477692,467.9957581,-0.0003931652464,467.9957581,100.0542603,467.9957581,94.9158783,,,
,,,,466.9275818,0.004161558114,466.9275818,0.02148664556,466.9275818,89.21599579,466.9275818,89.24048615,466.9275818,95.14638519,466.9275818,0.01158275548,466.9275818,100.0111465,466.9275818,95.03000641,,,
,,,,466.0118103,0.007435821462,466.0118103,0.0249389261,466.0118103,89.39196777,466.0118103,89.42728424,466.0118103,95.12360382,466.0118103,0.01314649824,466.0118103,100.0057831,466.0118103,95.06119537,,,
,,,,464.9432373,0.0283347033,464.9432373,0.01755291224,464.9432373,89.74181366,464.9432373,89.75431061,464.9432373,94.96713257,464.9432373,0.02203178965,464.9432373,100.0026016,464.9432373,94.96857452,,,
,,,,464.0271301,0.01352810208,464.0271301,0.01671521366,464.0271301,89.41960907,464.0271301,89.45092773,464.0271301,94.79341125,464.0271301,0.01361757424,464.0271301,100.025177,464.0271301,94.79837799,,,
,,,,462.9581299,0.01094662491,462.9581299,0.01251448411,462.9581299,89.34163666,462.9581299,89.34305573,462.9581299,94.52132416,462.9581299,0.01865055412,462.9581299,99.96140289,462.9581299,94.55387115,,,
,,,,462.0416565,0.01731381938,462.0416565,0.01192695275,462.0416565,89.33828735,462.0416565,89.38392639,462.0416565,94.24139404,462.0416565,0.01898056641,462.0416565,99.9466095,462.0416565,94.27964783,,,
,,,,460.9722595,0.008968129754,460.9722595,0.003313943045,460.9722595,89.45326233,460.9722595,89.47164917,460.9722595,93.98548889,460.9722595,0.003313326743,460.9722595,99.93384552,460.9722595,94.0018158,,,
,,,,460.0554504,0.008325149305,460.0554504,-0.002460941439,460.0554504,89.19789886,460.0554504,89.25765991,460.0554504,93.93248749,460.0554504,0.01469229907,460.0554504,99.9509964,460.0554504,93.95440674,,,
,,,,458.9856262,0.008870843798,458.9856262,0.01439394802,458.9856262,88.3717041,458.9856262,88.38887024,458.9856262,93.8527832,458.9856262,0.0214912463,458.9856262,99.94321442,458.9856262,93.82901764,,,
,,,,458.0684814,0.00183834706,458.0684814,0.01263379492,458.0684814,87.91096497,458.0684814,87.93208313,458.0684814,93.89343262,458.0684814,0.02039210871,458.0684814,99.960289,458.0684814,93.85936737,,,
,,,,456.9982605,0.02204180136,456.9982605,0.01074645668,456.9982605,88.41442108,456.9982605,88.44664764,456.9982605,94.0161972,456.9982605,0.02550938539,456.9982605,99.98190308,456.9982605,93.9628067,,,
,,,,455.9278564,0.01781521738,455.9278564,0.01374067646,455.9278564,87.92004395,455.9278564,87.89903259,455.9278564,94.21240997,455.9278564,0.01013091486,455.9278564,99.99116516,455.9278564,94.1344223,,,
,,,,455.0101624,0.02287917212,455.0101624,0.008635999635,455.0101624,87.41704559,455.0101624,87.42657471,455.0101624,94.41888428,455.0101624,0.01494878251,455.0101624,100.0183945,455.0101624,94.31509399,,,
,,,,453.9393311,0.02819682471,453.9393311,0.006562051363,453.9393311,87.85254669,453.9393311,87.90319824,453.9393311,94.55690765,453.9393311,0.001653337851,453.9393311,100.0031204,453.9393311,94.45346832,,,
,,,,453.0213013,0.002193226945,453.0213013,0.01921831816,453.0213013,87.53627014,453.0213013,87.59996033,453.0213013,94.63616943,453.0213013,0.007195987739,453.0213013,99.98966217,453.0213013,94.53146362,,,
,,,,451.9500732,0.01609106921,451.9500732,0.01073771529,451.9500732,87.9541626,451.9500732,87.94693756,451.9500732,94.66326141,451.9500732,0.00794542022,451.9500732,99.95326996,451.9500732,94.59686279,,,
,,,,451.0317078,0.005763558671,451.0317078,0.01310522482,451.0317078,88.57001495,451.0317078,88.56668091,451.0317078,94.67022705,451.0317078,0.02748651244,451.0317078,99.9576416,451.0317078,94.60175323,,,
,,,,449.9601135,0.0109038502,449.9601135,0.007149730809,449.9601135,89.43218994,449.9601135,89.41854095,449.9601135,94.60471344,449.9601135,0.01873875782,449.9601135,99.93896484,449.9601135,94.58203125,,,
,,,,,,,,,,,,,,,,,,449.0414124,94.4352951,,,
,,,,,,,,,,,,,,,,,,447.9693909,94.34902954,,,
,,,,,,,,,,,,,,,,,,447.050354,94.28093719,,,
,,,,,,,,,,,,,,,,,,445.9779358,94.23925018,,,
,,,,,,,,,,,,,,,,,,445.0585632,94.14780426,,,
,,,,,,,,,,,,,,,,,,443.9857483,94.03759003,,,
,,,,,,,,,,,,,,,,,,443.06604,94.04133606,,,
,,,,,,,,,,,,,,,,,,441.9928589,94.02736664,,,
,,,,,,,,,,,,,,,,,,441.0728149,94.0118103,,,
,,,,,,,,,,,,,,,,,,439.9992371,94.00104523,,,
,,,,,,,,,,,,,,,,,,438.9254456,94.00959015,,,
,,,,,,,,,,,,,,,,,,438.0049133,93.96981049,,,
,,,,,,,,,,,,,,,,,,436.9307251,93.99445343,,,
,,,,,,,,,,,,,,,,,,436.0098572,94.03830719,,,
,,,,,,,,,,,,,,,,,,434.9353027,94.0526886,,,
,,,,,,,,,,,,,,,,,,434.0140991,94.06287384,,,
,,,,,,,,,,,,,,,,,,432.9391479,93.98677826,,,
,,,,,,,,,,,,,,,,,,432.0176086,93.90948486,,,
,,,,,,,,,,,,,,,,,,430.9422913,93.82271576,,,
,,,,,,,,,,,,,,,,,,430.0204468,93.70611572,,,
,,,,,,,,,,,,,,,,,,428.9447632,93.5679245,,,
,,,,,,,,,,,,,,,,,,428.022583,93.48042297,,,
,,,,,,,,,,,,,,,,,,426.9465027,93.43357849,,,
,,,,,,,,,,,,,,,,,,426.0239868,93.40724945,,,
,,,,,,,,,,,,,,,,,,424.9475403,93.41777802,,,
,,,,,,,,,,,,,,,,,,424.0247192,93.34099579,,,
,,,,,,,,,,,,,,,,,,422.9479065,93.16918945,,,
,,,,,,,,,,,,,,,,,,422.0247803,92.97940826,,,
,,,,,,,,,,,,,,,,,,420.9475708,92.65169525,,,
,,,,,,,,,,,,,,,,,,420.0241394,92.36766815,,,
,,,,,,,,,,,,,,,,,,418.9465637,91.84892273,,,
,,,,,,,,,,,,,,,,,,418.0227966,91.41944885,,,
,,,,,,,,,,,,,,,,,,416.9448853,90.98800659,,,
,,,,,,,,,,,,,,,,,,416.0207825,90.72544098,,,
,,,,,,,,,,,,,,,,,,414.9425049,90.61081696,,,
,,,,,,,,,,,,,,,,,,414.0180969,90.54670715,,,
,,,,,,,,,,,,,,,,,,412.9394531,90.59207153,,,
,,,,,,,,,,,,,,,,,,412.01474,90.68464661,,,
,,,,,,,,,,,,,,,,,,410.93573,90.78863525,,,
,,,,,,,,,,,,,,,,,,410.0106812,90.85138702,,,
,,,,,,,,,,,,,,,,,,408.9313049,90.7926178,,,
,,,,,,,,,,,,,,,,,,408.0059814,90.66197968,,,
,,,,,,,,,,,,,,,,,,406.9262695,90.37190247,,,
,,,,,,,,,,,,,,,,,,406.0006104,89.99484253,,,
,,,,,,,,,,,,,,,,,,405.0748291,89.60597229,,,
,,,,,,,,,,,,,,,,,,403.9945984,88.96578217,,,
,,,,,,,,,,,,,,,,,,403.068512,88.1832962,,,
,,,,,,,,,,,,,,,,,,401.9878845,87.4118576,,,
,,,,,,,,,,,,,,,,,,401.0615234,86.82494354,,,
,,,,,,,,,,,,,,,,,,399.9805603,86.48336792,,,
,,,,,,,,,,,,,,,,,,399.0538635,86.35366821,,,
,,,,,,,,,,,,,,,,,,397.9725647,86.28851318,,,
,,,,,,,,,,,,,,,,,,397.0455627,86.14015961,,,
,,,,,,,,,,,,,,,,,,395.9638977,85.45601654,,,
,,,,,,,,,,,,,,,,,,395.0366211,84.55941772,,,
,,,,,,,,,,,,,,,,,,393.9546204,82.7855072,,,
,,,,,,,,,,,,,,,,,,393.0270386,80.96593475,,,
,,,,,,,,,,,,,,,,,,391.9446716,79.0712204,,,
,,,,,,,,,,,,,,,,,,391.0168152,77.85102081,,,
,,,,,,,,,,,,,,,,,,389.9341125,77.35108948,,,
,,,,,,,,,,,,,,,,,,389.0059509,77.33483887,,,
,,,,,,,,,,,,,,,,,,387.9229126,77.14454651,,,
,,,,,,,,,,,,,,,,,,386.9944458,75.82954407,,,
,,,,,,,,,,,,,,,,,,386.0658264,73.11125183,,,
,,,,,,,,,,,,,,,,,,384.9822998,68.92547607,,,
,,,,,,,,,,,,,,,,,,384.0534058,66.25815582,,,
,,,,,,,,,,,,,,,,,,382.9695435,63.12339783,,,
,,,,,,,,,,,,,,,,,,382.0403748,61.40965271,,,
,,,,,,,,,,,,,,,,,,380.9561768,61.28571701,,,
,,,,,,,,,,,,,,,,,,380.0267029,61.12513733,,,
,,,,,,,,,,,,,,,,,,378.9421692,59.25328827,,,
,,,,,,,,,,,,,,,,,,378.0124207,56.26438904,,,
,,,,,,,,,,,,,,,,,,376.9275513,49.62998581,,,
,,,,,,,,,,,,,,,,,,375.9974976,44.23524857,,,
,,,,,,,,,,,,,,,,,,375.0673523,40.70428467,,,
,,,,,,,,,,,,,,,,,,373.9819946,39.1317482,,,
,,,,,,,,,,,,,,,,,,373.0515442,38.36074829,,,
,,,,,,,,,,,,,,,,,,371.9658508,35.99750519,,,
,,,,,,,,,,,,,,,,,,371.0351257,31.44537163,,,
,,,,,,,,,,,,,,,,,,369.9491272,24.9003849,,,
,,,,,,,,,,,,,,,,,,369.0181274,20.54534721,,,
,,,,,,,,,,,,,,,,,,367.9317932,17.5319252,,,
,,,,,,,,,,,,,,,,,,367.0005188,15.6534729,,,
,,,,,,,,,,,,,,,,,,366.0690918,13.33850479,,,
,,,,,,,,,,,,,,,,,,364.9822998,9.639381409,,,
,,,,,,,,,,,,,,,,,,364.0505981,6.709872246,,,
,,,,,,,,,,,,,,,,,,362.9634705,4.424195766,,,
,,,,,,,,,,,,,,,,,,362.0315247,3.155132294,,,
,,,,,,,,,,,,,,,,,,360.9440918,2.008691788,,,
,,,,,,,,,,,,,,,,,,360.0118408,1.226831675,,,
,,,,,,,,,,,,,,,,,,358.9241028,0.5478726029,,,
,,,,,,,,,,,,,,,,,,357.9916077,0.365383178,,,
,,,,,,,,,,,,,,,,,,357.05896,0.191463694,,,
,,,,,,,,,,,,,,,,,,355.9707642,0.1018186212,,,
,,,,,,,,,,,,,,,,,,355.0378723,0.05965036526,,,
,,,,,,,,,,,,,,,,,,353.9493408,0.04307940975,,,
,,,,,,,,,,,,,,,,,,353.0161743,0.04325957224,,,
,,,,,,,,,,,,,,,,,,351.9273376,0.02279365622,,,
,,,,,,,,,,,,,,,,,,350.9938965,0.02772106044,,,
,,,,,,,,,,,,,,,,,,350.0603638,0.01576033607,,,

600LP,
600LP
Collection Time: 5/10/2018 5:14:12 PM
Operator Name  :
Scan Software Version: 3.00(182)
Parameter List :
Instrument                        Cary 50
Instrument Version                3.00
Start (nm)                        800.0
Stop (nm)                         200.0
X Mode                            Nanometers
Y Mode                            Abs
UV-Vis Scan Rate (nm/min)         24000.000
UV-Vis Data Interval (nm)         5.00
UV-Vis Ave. Time (sec)            0.0125
Beam Mode                         Dual Beam
Baseline Correction               On
Baseline Type                     Baseline correction
Baseline File Name
Baseline Std Ref File Name
Cycle Mode                        Off
Comments
Method Log     :
Method Name    : Default
Date/Time stamp: 5/10/2018 5:12:26 PM
Method Modifications:
Cell Changer 6x6 Changed: 5/10/2018 5:12:37 PM, Old:1, New:0
UVVIS SAT Changed: 5/10/2018 5:12:38 PM, Old:0.1000, New:0.0125
NIR SAT Changed: 5/10/2018 5:12:38 PM, Old:0.1000, New:0.0125
Common SAT Changed: 5/10/2018 5:12:38 PM, Old:0.1000, New:0.0125
Baseline Correction Changed: 5/10/2018 5:12:42 PM, Old:0, New:1
Temp Controller Changed: 5/10/2018 5:12:42 PM, Old:0, New:2
Sipper Type Changed: 5/10/2018 5:12:42 PM, Old:Internal RSA, New:External sipper
End Method Modifications
<Current Wavelength> , 240.0

600LP1,
600LP1
Collection Time: 5/10/2018 5:18:01 PM
Operator Name  :
Scan Software Version: 3.00(182)
Parameter List :
Instrument                        Cary 50
Instrument Version                3.00
Start (nm)                        650.0
Stop (nm)                         450.0
X Mode                            Nanometers
Y Mode                            %T
UV-Vis Scan Rate (nm/min)         600.000
UV-Vis Data Interval (nm)         1.00
UV-Vis Ave. Time (sec)            0.1000
Beam Mode                         Dual Beam
Baseline Correction               On
Baseline Type                     Baseline correction
Baseline File Name
Baseline Std Ref File Name
Cycle Mode                        Off
Comments
Method Log     :
Method Name    : Default
Date/Time stamp: 5/10/2018 5:12:26 PM
Method Modifications:
Cell Changer 6x6 Changed: 5/10/2018 5:12:37 PM, Old:1, New:0
UVVIS SAT Changed: 5/10/2018 5:12:38 PM, Old:0.1000, New:0.0125
NIR SAT Changed: 5/10/2018 5:12:38 PM, Old:0.1000, New:0.0125
Common SAT Changed: 5/10/2018 5:12:38 PM, Old:0.1000, New:0.0125
Baseline Correction Changed: 5/10/2018 5:12:42 PM, Old:0, New:1
Temp Controller Changed: 5/10/2018 5:12:42 PM, Old:0, New:2
Sipper Type Changed: 5/10/2018 5:12:42 PM, Old:Internal RSA, New:External sipper
UVVIS SAT Changed: 5/10/2018 5:17:05 PM, Old:0.0125, New:0.1000
NIR SAT Changed: 5/10/2018 5:17:05 PM, Old:0.0125, New:0.1000
Common SAT Changed: 5/10/2018 5:17:05 PM, Old:0.0125, New:0.1000
Y mode Changed: 5/10/2018 5:17:29 PM, Old:Abs, New:%T
End Method Modifications
<Current Wavelength> , 455.0

600LP2,
600LP2
Collection Time: 5/10/2018 5:19:13 PM
Operator Name  :
Scan Software Version: 3.00(182)
Parameter List :
Instrument                        Cary 50
Instrument Version                3.00
Start (nm)                        750.0
Stop (nm)                         450.0
X Mode                            Nanometers
Y Mode                            %T
UV-Vis Scan Rate (nm/min)         600.000
UV-Vis Data Interval (nm)         1.00
UV-Vis Ave. Time (sec)            0.1000
Beam Mode                         Dual Beam
Baseline Correction               On
Baseline Type                     Baseline correction
Baseline File Name
Baseline Std Ref File Name
Cycle Mode                        Off
Comments
Method Log     :
Method Name    : Default
Date/Time stamp: 5/10/2018 5:12:26 PM
Method Modifications:
Cell Changer 6x6 Changed: 5/10/2018 5:12:37 PM, Old:1, New:0
UVVIS SAT Changed: 5/10/2018 5:12:38 PM, Old:0.1000, New:0.0125
NIR SAT Changed: 5/10/2018 5:12:38 PM, Old:0.1000, New:0.0125
Common SAT Changed: 5/10/2018 5:12:38 PM, Old:0.1000, New:0.0125
Baseline Correction Changed: 5/10/2018 5:12:42 PM, Old:0, New:1
Temp Controller Changed: 5/10/2018 5:12:42 PM, Old:0, New:2
Sipper Type Changed: 5/10/2018 5:12:42 PM, Old:Internal RSA, New:External sipper
UVVIS SAT Changed: 5/10/2018 5:17:05 PM, Old:0.0125, New:0.1000
NIR SAT Changed: 5/10/2018 5:17:05 PM, Old:0.0125, New:0.1000
Common SAT Changed: 5/10/2018 5:17:05 PM, Old:0.0125, New:0.1000
Y mode Changed: 5/10/2018 5:17:29 PM, Old:Abs, New:%T
End Method Modifications
<Current Wavelength> , 452.0

550LP,
550LP
Collection Time: 5/10/2018 5:20:01 PM
Operator Name  :
Scan Software Version: 3.00(182)
Parameter List :
Instrument                        Cary 50
Instrument Version                3.00
Start (nm)                        750.0
Stop (nm)                         450.0
X Mode                            Nanometers
Y Mode                            %T
UV-Vis Scan Rate (nm/min)         600.000
UV-Vis Data Interval (nm)         1.00
UV-Vis Ave. Time (sec)            0.1000
Beam Mode                         Dual Beam
Baseline Correction               On
Baseline Type                     Baseline correction
Baseline File Name
Baseline Std Ref File Name
Cycle Mode                        Off
Comments
Method Log     :
Method Name    : Default
Date/Time stamp: 5/10/2018 5:12:26 PM
Method Modifications:
Cell Changer 6x6 Changed: 5/10/2018 5:12:37 PM, Old:1, New:0
UVVIS SAT Changed: 5/10/2018 5:12:38 PM, Old:0.1000, New:0.0125
NIR SAT Changed: 5/10/2018 5:12:38 PM, Old:0.1000, New:0.0125
Common SAT Changed: 5/10/2018 5:12:38 PM, Old:0.1000, New:0.0125
Baseline Correction Changed: 5/10/2018 5:12:42 PM, Old:0, New:1
Temp Controller Changed: 5/10/2018 5:12:42 PM, Old:0, New:2
Sipper Type Changed: 5/10/2018 5:12:42 PM, Old:Internal RSA, New:External sipper
UVVIS SAT Changed: 5/10/2018 5:17:05 PM, Old:0.0125, New:0.1000
NIR SAT Changed: 5/10/2018 5:17:05 PM, Old:0.0125, New:0.1000
Common SAT Changed: 5/10/2018 5:17:05 PM, Old:0.0125, New:0.1000
Y mode Changed: 5/10/2018 5:17:29 PM, Old:Abs, New:%T
End Method Modifications
<Current Wavelength> , 452.0

600SP800N,
600SP800N
Collection Time: 5/10/2018 5:20:57 PM
Operator Name  :
Scan Software Version: 3.00(182)
Parameter List :
Instrument                        Cary 50
Instrument Version                3.00
Start (nm)                        750.0
Stop (nm)                         450.0
X Mode                            Nanometers
Y Mode                            %T
UV-Vis Scan Rate (nm/min)         600.000
UV-Vis Data Interval (nm)         1.00
UV-Vis Ave. Time (sec)            0.1000
Beam Mode                         Dual Beam
Baseline Correction               On
Baseline Type                     Baseline correction
Baseline File Name
Baseline Std Ref File Name
Cycle Mode                        Off
Comments
Method Log     :
Method Name    : Default
Date/Time stamp: 5/10/2018 5:12:26 PM
Method Modifications:
Cell Changer 6x6 Changed: 5/10/2018 5:12:37 PM, Old:1, New:0
UVVIS SAT Changed: 5/10/2018 5:12:38 PM, Old:0.1000, New:0.0125
NIR SAT Changed: 5/10/2018 5:12:38 PM, Old:0.1000, New:0.0125
Common SAT Changed: 5/10/2018 5:12:38 PM, Old:0.1000, New:0.0125
Baseline Correction Changed: 5/10/2018 5:12:42 PM, Old:0, New:1
Temp Controller Changed: 5/10/2018 5:12:42 PM, Old:0, New:2
Sipper Type Changed: 5/10/2018 5:12:42 PM, Old:Internal RSA, New:External sipper
UVVIS SAT Changed: 5/10/2018 5:17:05 PM, Old:0.0125, New:0.1000
NIR SAT Changed: 5/10/2018 5:17:05 PM, Old:0.0125, New:0.1000
Common SAT Changed: 5/10/2018 5:17:05 PM, Old:0.0125, New:0.1000
Y mode Changed: 5/10/2018 5:17:29 PM, Old:Abs, New:%T
End Method Modifications
<Current Wavelength> , 452.0

600SP800N1,
600SP800N1
Collection Time: 5/10/2018 5:21:34 PM
Operator Name  :
Scan Software Version: 3.00(182)
Parameter List :
Instrument                        Cary 50
Instrument Version                3.00
Start (nm)                        750.0
Stop (nm)                         450.0
X Mode                            Nanometers
Y Mode                            %T
UV-Vis Scan Rate (nm/min)         600.000
UV-Vis Data Interval (nm)         1.00
UV-Vis Ave. Time (sec)            0.1000
Beam Mode                         Dual Beam
Baseline Correction               On
Baseline Type                     Baseline correction
Baseline File Name
Baseline Std Ref File Name
Cycle Mode                        Off
Comments
Method Log     :
Method Name    : Default
Date/Time stamp: 5/10/2018 5:12:26 PM
Method Modifications:
Cell Changer 6x6 Changed: 5/10/2018 5:12:37 PM, Old:1, New:0
UVVIS SAT Changed: 5/10/2018 5:12:38 PM, Old:0.1000, New:0.0125
NIR SAT Changed: 5/10/2018 5:12:38 PM, Old:0.1000, New:0.0125
Common SAT Changed: 5/10/2018 5:12:38 PM, Old:0.1000, New:0.0125
Baseline Correction Changed: 5/10/2018 5:12:42 PM, Old:0, New:1
Temp Controller Changed: 5/10/2018 5:12:42 PM, Old:0, New:2
Sipper Type Changed: 5/10/2018 5:12:42 PM, Old:Internal RSA, New:External sipper
UVVIS SAT Changed: 5/10/2018 5:17:05 PM, Old:0.0125, New:0.1000
NIR SAT Changed: 5/10/2018 5:17:05 PM, Old:0.0125, New:0.1000
Common SAT Changed: 5/10/2018 5:17:05 PM, Old:0.0125, New:0.1000
Y mode Changed: 5/10/2018 5:17:29 PM, Old:Abs, New:%T
End Method Modifications
<Current Wavelength> , 452.0

530SP,
530SP
Collection Time: 5/10/2018 5:22:30 PM
Operator Name  :
Scan Software Version: 3.00(182)
Parameter List :
Instrument                        Cary 50
Instrument Version                3.00
Start (nm)                        750.0
Stop (nm)                         450.0
X Mode                            Nanometers
Y Mode                            %T
UV-Vis Scan Rate (nm/min)         600.000
UV-Vis Data Interval (nm)         1.00
UV-Vis Ave. Time (sec)            0.1000
Beam Mode                         Dual Beam
Baseline Correction               On
Baseline Type                     Baseline correction
Baseline File Name
Baseline Std Ref File Name
Cycle Mode                        Off
Comments
Method Log     :
Method Name    : Default
Date/Time stamp: 5/10/2018 5:12:26 PM
Method Modifications:
Cell Changer 6x6 Changed: 5/10/2018 5:12:37 PM, Old:1, New:0
UVVIS SAT Changed: 5/10/2018 5:12:38 PM, Old:0.1000, New:0.0125
NIR SAT Changed: 5/10/2018 5:12:38 PM, Old:0.1000, New:0.0125
Common SAT Changed: 5/10/2018 5:12:38 PM, Old:0.1000, New:0.0125
Baseline Correction Changed: 5/10/2018 5:12:42 PM, Old:0, New:1
Temp Controller Changed: 5/10/2018 5:12:42 PM, Old:0, New:2
Sipper Type Changed: 5/10/2018 5:12:42 PM, Old:Internal RSA, New:External sipper
UVVIS SAT Changed: 5/10/2018 5:17:05 PM, Old:0.0125, New:0.1000
NIR SAT Changed: 5/10/2018 5:17:05 PM, Old:0.0125, New:0.1000
Common SAT Changed: 5/10/2018 5:17:05 PM, Old:0.0125, New:0.1000
Y mode Changed: 5/10/2018 5:17:29 PM, Old:Abs, New:%T
End Method Modifications
<Current Wavelength> , 452.0

GSBS,
GSBS
Collection Time: 5/10/2018 5:23:21 PM
Operator Name  :
Scan Software Version: 3.00(182)
Parameter List :
Instrument                        Cary 50
Instrument Version                3.00
Start (nm)                        750.0
Stop (nm)                         450.0
X Mode                            Nanometers
Y Mode                            %T
UV-Vis Scan Rate (nm/min)         600.000
UV-Vis Data Interval (nm)         1.00
UV-Vis Ave. Time (sec)            0.1000
Beam Mode                         Dual Beam
Baseline Correction               On
Baseline Type                     Baseline correction
Baseline File Name
Baseline Std Ref File Name
Cycle Mode                        Off
Comments
Method Log     :
Method Name    : Default
Date/Time stamp: 5/10/2018 5:12:26 PM
Method Modifications:
Cell Changer 6x6 Changed: 5/10/2018 5:12:37 PM, Old:1, New:0
UVVIS SAT Changed: 5/10/2018 5:12:38 PM, Old:0.1000, New:0.0125
NIR SAT Changed: 5/10/2018 5:12:38 PM, Old:0.1000, New:0.0125
Common SAT Changed: 5/10/2018 5:12:38 PM, Old:0.1000, New:0.0125
Baseline Correction Changed: 5/10/2018 5:12:42 PM, Old:0, New:1
Temp Controller Changed: 5/10/2018 5:12:42 PM, Old:0, New:2
Sipper Type Changed: 5/10/2018 5:12:42 PM, Old:Internal RSA, New:External sipper
UVVIS SAT Changed: 5/10/2018 5:17:05 PM, Old:0.0125, New:0.1000
NIR SAT Changed: 5/10/2018 5:17:05 PM, Old:0.0125, New:0.1000
Common SAT Changed: 5/10/2018 5:17:05 PM, Old:0.0125, New:0.1000
Y mode Changed: 5/10/2018 5:17:29 PM, Old:Abs, New:%T
End Method Modifications
<Current Wavelength> , 452.0

550LP2,
550LP2
Collection Time: 5/10/2018 5:24:24 PM
Operator Name  :
Scan Software Version: 3.00(182)
Parameter List :
Instrument                        Cary 50
Instrument Version                3.00
Start (nm)                        750.0
Stop (nm)                         450.0
X Mode                            Nanometers
Y Mode                            %T
UV-Vis Scan Rate (nm/min)         600.000
UV-Vis Data Interval (nm)         1.00
UV-Vis Ave. Time (sec)            0.1000
Beam Mode                         Dual Beam
Baseline Correction               On
Baseline Type                     Baseline correction
Baseline File Name
Baseline Std Ref File Name
Cycle Mode                        Off
Comments
Method Log     :
Method Name    : Default
Date/Time stamp: 5/10/2018 5:12:26 PM
Method Modifications:
Cell Changer 6x6 Changed: 5/10/2018 5:12:37 PM, Old:1, New:0
UVVIS SAT Changed: 5/10/2018 5:12:38 PM, Old:0.1000, New:0.0125
NIR SAT Changed: 5/10/2018 5:12:38 PM, Old:0.1000, New:0.0125
Common SAT Changed: 5/10/2018 5:12:38 PM, Old:0.1000, New:0.0125
Baseline Correction Changed: 5/10/2018 5:12:42 PM, Old:0, New:1
Temp Controller Changed: 5/10/2018 5:12:42 PM, Old:0, New:2
Sipper Type Changed: 5/10/2018 5:12:42 PM, Old:Internal RSA, New:External sipper
UVVIS SAT Changed: 5/10/2018 5:17:05 PM, Old:0.0125, New:0.1000
NIR SAT Changed: 5/10/2018 5:17:05 PM, Old:0.0125, New:0.1000
Common SAT Changed: 5/10/2018 5:17:05 PM, Old:0.0125, New:0.1000
Y mode Changed: 5/10/2018 5:17:29 PM, Old:Abs, New:%T
End Method Modifications
<Current Wavelength> , 452.0

530SP2,
530SP2
Collection Time: 5/10/2018 5:25:51 PM
Operator Name  :
Scan Software Version: 3.00(182)
Parameter List :
Instrument                        Cary 50
Instrument Version                3.00
Start (nm)                        750.0
Stop (nm)                         350.0
X Mode                            Nanometers
Y Mode                            %T
UV-Vis Scan Rate (nm/min)         600.000
UV-Vis Data Interval (nm)         1.00
UV-Vis Ave. Time (sec)            0.1000
Beam Mode                         Dual Beam
Baseline Correction               On
Baseline Type                     Baseline correction
Baseline File Name
Baseline Std Ref File Name
Cycle Mode                        Off
Comments
Method Log     :
Method Name    : Default
Date/Time stamp: 5/10/2018 5:12:26 PM
Method Modifications:
Cell Changer 6x6 Changed: 5/10/2018 5:12:37 PM, Old:1, New:0
UVVIS SAT Changed: 5/10/2018 5:12:38 PM, Old:0.1000, New:0.0125
NIR SAT Changed: 5/10/2018 5:12:38 PM, Old:0.1000, New:0.0125
Common SAT Changed: 5/10/2018 5:12:38 PM, Old:0.1000, New:0.0125
Baseline Correction Changed: 5/10/2018 5:12:42 PM, Old:0, New:1
Temp Controller Changed: 5/10/2018 5:12:42 PM, Old:0, New:2
Sipper Type Changed: 5/10/2018 5:12:42 PM, Old:Internal RSA, New:External sipper
UVVIS SAT Changed: 5/10/2018 5:17:05 PM, Old:0.0125, New:0.1000
NIR SAT Changed: 5/10/2018 5:17:05 PM, Old:0.0125, New:0.1000
Common SAT Changed: 5/10/2018 5:17:05 PM, Old:0.0125, New:0.1000
Y mode Changed: 5/10/2018 5:17:29 PM, Old:Abs, New:%T
End Method Modifications
<Current Wavelength> , 350.1

530SP_HI,
530SP_HI
Collection Time: 5/10/2018 5:26:59 PM
Operator Name  :
Scan Software Version: 3.00(182)
Parameter List :
Instrument                        Cary 50
Instrument Version                3.00
Start (nm)                        800.0
Stop (nm)                         700.0
X Mode                            Nanometers
Y Mode                            %T
UV-Vis Scan Rate (nm/min)         600.000
UV-Vis Data Interval (nm)         1.00
UV-Vis Ave. Time (sec)            0.1000
Beam Mode                         Dual Beam
Baseline Correction               On
Baseline Type                     Baseline correction
Baseline File Name
Baseline Std Ref File Name
Cycle Mode                        Off
Comments
Method Log     :
Method Name    : Default
Date/Time stamp: 5/10/2018 5:12:26 PM
Method Modifications:
Cell Changer 6x6 Changed: 5/10/2018 5:12:37 PM, Old:1, New:0
UVVIS SAT Changed: 5/10/2018 5:12:38 PM, Old:0.1000, New:0.0125
NIR SAT Changed: 5/10/2018 5:12:38 PM, Old:0.1000, New:0.0125
Common SAT Changed: 5/10/2018 5:12:38 PM, Old:0.1000, New:0.0125
Baseline Correction Changed: 5/10/2018 5:12:42 PM, Old:0, New:1
Temp Controller Changed: 5/10/2018 5:12:42 PM, Old:0, New:2
Sipper Type Changed: 5/10/2018 5:12:42 PM, Old:Internal RSA, New:External sipper
UVVIS SAT Changed: 5/10/2018 5:17:05 PM, Old:0.0125, New:0.1000
NIR SAT Changed: 5/10/2018 5:17:05 PM, Old:0.0125, New:0.1000
Common SAT Changed: 5/10/2018 5:17:05 PM, Old:0.0125, New:0.1000
Y mode Changed: 5/10/2018 5:17:29 PM, Old:Abs, New:%T
End Method Modifications
<Current Wavelength> , 701.0

